timestamp,emg1,emg2,emg3,emg4,emg5,emg6,emg7,emg8
1534208387726078,-1,-11,8,37,9,-8,-7,0
1534208387726078,3,12,-36,-49,-11,3,0,-1
1534208387727078,-6,7,19,9,-1,-7,0,2
1534208387727078,1,-9,25,35,11,5,1,-2
1534208387749077,1,1,-30,-14,-2,3,4,3
1534208387749077,2,10,19,0,4,4,1,1
1534208387750077,-7,-6,26,34,-5,-5,-5,-2
1534208387750077,5,5,3,-16,11,7,-5,-3
1534208387771077,-2,-5,17,-10,-4,4,10,-2
1534208387771077,1,-5,-6,46,-10,-7,-3,1
1534208387772077,0,18,-10,-73,2,0,-5,1
1534208387772077,-2,-5,-21,8,-1,3,-7,2
1534208387786076,0,8,35,13,2,7,15,1
1534208387786076,0,2,-12,16,10,10,0,-1
1534208387787077,-1,7,-6,-2,-6,-3,3,-1
1534208387787077,-4,10,27,28,0,-7,-3,0
1534208387808058,0,-4,-52,-64,-11,-4,-6,-6
1534208387808058,4,2,47,86,7,2,1,2
1534208387809044,3,12,-30,-76,-9,-8,-2,2
1534208387809044,-5,-4,-47,-38,1,5,9,-2
1534208387831048,-4,-4,-15,6,0,-4,-16,-7
1534208387831048,-6,-3,21,7,-2,-3,10,0
1534208387832047,1,1,24,5,-2,4,2,0
1534208387832047,7,-5,3,-7,-6,4,9,4
1534208387846122,-8,15,-20,-3,-8,-14,-13,-7
1534208387846122,-7,-20,-15,-23,-5,-7,-13,-7
1534208387847077,7,19,-22,28,-2,-4,-1,2
1534208387847077,6,2,25,-33,0,36,30,6
1534208387869046,-2,6,16,22,5,-8,0,0
1534208387869046,2,9,-59,-120,-10,1,4,3
1534208387870075,-4,7,28,80,-6,-10,-17,-6
1534208387870075,-7,-13,-12,-20,-9,-22,-14,-3
1534208387891120,8,7,-20,-15,4,11,6,2
1534208387891120,-5,13,60,79,14,-7,-9,-3
1534208387892075,-3,-18,-40,-27,-10,-2,3,0
1534208387892075,-2,8,47,-1,-4,4,7,-2
1534208387906121,9,6,-13,-13,0,-2,-5,6
1534208387906121,5,-12,-43,-68,-8,-7,-8,-2
1534208387907075,2,1,8,33,12,11,15,4
1534208387907075,-8,-20,22,55,1,-16,-18,-6
1534208387929075,-12,-1,10,-26,-7,-17,-24,-9
1534208387929075,6,1,-4,11,4,21,12,6
1534208387930047,6,8,17,18,-7,-15,0,3
1534208387930047,0,3,-22,-57,-2,2,5,0
1534208387951090,-5,-19,29,52,1,-1,-1,-1
1534208387951090,7,5,4,36,5,5,1,0
1534208387952075,-10,-8,-56,-89,-8,4,-2,-6
1534208387952075,-9,-2,32,56,5,0,5,-4
1534208387965012,9,15,-51,-39,-7,-1,7,4
1534208387965012,2,-18,33,39,3,4,14,4
1534208387966043,3,-5,3,24,9,5,-9,0
1534208387966043,-7,6,-30,-3,-1,-9,-14,-9
1534208387989117,-7,-36,4,47,-13,-10,-5,-6
1534208387989117,-7,11,-63,-109,-2,-8,-11,-5
1534208387990075,3,-7,31,62,5,4,-15,1
1534208387990075,2,0,13,9,0,-1,21,3
1534208388011120,2,0,3,12,1,3,4,3
1534208388011120,5,-5,-23,-1,-9,0,-3,5
1534208388012074,-12,-16,1,-47,-1,-10,12,-6
1534208388012074,3,-1,33,51,15,18,-7,2
1534208388026074,-3,18,-12,-33,-10,-12,-20,-3
1534208388026074,2,2,24,19,-5,-18,-5,-4
1534208388027074,5,7,-36,-54,-4,6,13,3
1534208388027074,0,-4,-7,28,-7,-17,-15,-3
1534208388049072,-2,-12,9,-14,11,24,20,1
1534208388049072,-1,-1,54,59,2,-5,-13,1
1534208388050073,-8,-9,14,39,0,2,14,-4
1534208388050073,-5,-17,-13,-50,2,-7,0,-1
1534208388071119,6,3,-22,-32,7,2,-4,3
1534208388071119,0,-8,-23,-8,-7,-7,-2,-5
1534208388072073,2,7,51,40,10,14,4,2
1534208388072073,2,9,-90,-69,-8,-17,-23,-2
1534208388086116,1,4,19,27,-3,16,37,2
1534208388086116,-6,-14,-16,-19,21,-3,-14,-1
1534208388087073,7,-2,17,21,2,16,7,6
1534208388087073,0,11,28,69,-3,-2,0,-1
1534208388109119,-7,-6,-37,-53,-1,-12,-27,-7
1534208388109119,5,16,5,27,-2,-5,22,3
1534208388110072,-3,-9,6,21,-1,-18,-27,-4
1534208388110072,-1,3,-49,-93,-21,11,1,-3
1534208388131041,3,8,53,45,7,-29,-13,1
1534208388131041,-2,-7,-15,5,4,38,31,1
1534208388132043,-4,4,-11,-28,3,-2,4,1
1534208388132043,-3,-8,-8,-13,-4,-6,5,2
1534208388146125,0,-4,63,63,0,-1,-14,-3
1534208388146125,-10,-13,-19,-24,5,-13,-19,-5
1534208388147073,1,-19,13,-46,-13,2,7,0
1534208388147073,14,29,14,45,8,8,7,7
1534208388169124,-3,-7,-9,-4,1,-12,-1,-3
1534208388169124,-10,2,-55,-31,-4,9,4,1
1534208388170074,0,-1,1,25,1,-6,-3,-1
1534208388170074,-6,0,18,-22,-4,-9,9,-4
1534208388191093,-3,-14,-39,18,10,20,3,5
1534208388191093,17,18,4,-8,-12,8,0,3
1534208388192071,6,7,18,34,-6,-25,-14,4
1534208388192071,-9,-1,-58,-77,-10,-10,-9,-7
1534208388205059,-1,10,-4,3,13,25,-1,-1
1534208388205059,-10,-1,2,1,-4,-7,1,-6
1534208388206042,1,7,-10,27,7,13,26,2
1534208388206042,6,1,65,48,2,-12,-15,-2
1534208388229120,7,14,2,-34,-19,-15,2,3
1534208388229120,-4,2,-4,3,1,11,-3,-2
1534208388230071,0,-10,13,-7,-3,0,-8,0
1534208388230071,2,2,36,39,12,28,39,4
1534208388251092,-7,-15,-64,-59,-7,-3,-7,-1
1534208388251092,1,-1,56,32,0,-10,-7,-7
1534208388252071,1,-4,-27,0,-21,-6,-8,-1
1534208388252071,4,-14,50,-1,20,5,-6,-1
1534208388266071,2,2,6,-5,-6,11,6,3
1534208388266071,-7,-12,-29,9,2,-16,-13,-5
1534208388267073,-9,-10,-6,-20,1,21,27,1
1534208388267073,11,-1,-5,25,-11,0,-11,5
1534208388289120,3,3,62,39,13,-7,-4,-3
1534208388289120,-9,5,14,-3,-3,-17,-6,-5
1534208388290070,-9,-5,-38,-26,-9,-18,-19,-2
1534208388290070,4,4,-52,-39,-5,14,-1,0
1534208388311123,-4,-11,8,5,10,24,35,5
1534208388311123,3,8,45,52,-4,-14,-26,-2
1534208388312070,-2,5,-55,-82,3,-2,3,-8
1534208388312070,-7,-21,61,73,-1,-3,-3,-2
1534208388325119,1,-13,43,32,-2,-4,-2,-1
1534208388325119,-2,5,-46,-53,-12,-7,-7,1
1534208388333123,-5,16,30,25,0,12,-3,-3
1534208388333123,-1,7,-38,-82,-3,-1,2,2
1534208388349040,-4,-16,-26,14,-9,1,2,1
1534208388349040,1,6,70,76,4,-5,1,1
1534208388350069,-5,1,-28,-43,-7,-12,-11,-4
1534208388350069,4,21,-5,-32,1,18,20,4
1534208388371122,1,-7,4,45,-12,-18,-9,-3
1534208388371122,5,36,-39,-26,-13,2,2,1
1534208388372069,5,10,4,6,-5,-29,-26,-6
1534208388372069,2,-1,1,33,16,45,8,12
1534208388385118,-10,3,-55,-50,0,-2,29,-3
1534208388385118,1,-12,16,14,9,6,-5,-1
1534208388393118,-4,1,54,87,4,-1,-6,-7
1534208388393118,-4,-15,-67,-49,-8,-26,-17,-4
1534208388409090,6,10,15,11,11,25,5,4
1534208388409090,-7,2,-27,-46,-5,9,3,-2
1534208388410068,-5,-12,17,23,-3,-7,-11,-4
1534208388410068,-3,-5,42,29,4,-11,-6,-7
1534208388431037,5,-2,-2,-28,0,8,21,6
1534208388431037,1,21,-29,21,6,4,7,3
1534208388432040,-1,-8,9,8,10,7,9,2
1534208388432040,7,0,-34,-17,-11,-26,-18,-2
1534208388445121,0,3,3,13,-6,-10,-15,-2
1534208388445121,-4,2,13,-1,18,28,25,1
1534208388453117,2,0,13,5,-6,3,-18,-2
1534208388453117,-8,5,11,9,1,-4,32,-1
1534208388469088,8,15,4,-31,-13,-9,-11,3
1534208388469088,-1,-17,-21,5,10,-7,-6,0
1534208388470039,-1,2,-33,-34,-2,0,5,3
1534208388470039,-6,-2,18,-4,-5,2,-5,-3
1534208388491034,0,6,7,8,0,-20,-16,-4
1534208388491034,-10,-3,30,-7,-12,-17,-34,-6
1534208388492068,5,16,-23,-8,6,27,66,12
1534208388492068,3,16,-48,-10,-8,-11,-14,0
1534208388505065,0,-19,26,7,4,1,-2,1
1534208388505065,5,2,23,13,-9,-14,-14,-3
1534208388513113,-7,-2,-28,-44,6,5,-1,-5
1534208388513113,1,-7,32,30,7,4,0,-1
1534208388528110,-6,1,-26,5,-6,-16,-12,-8
1534208388528110,2,-13,-7,-18,0,7,12,2
1534208388529067,2,19,11,3,-14,1,-9,0
1534208388529067,5,-16,-33,-4,-3,10,27,4
1534208388551112,0,-1,2,-21,0,1,-9,-1
1534208388551112,5,6,-28,-16,3,4,9,6
1534208388552067,-6,3,7,28,-4,-17,-26,-4
1534208388552067,-1,4,-6,-18,-2,2,14,4
1534208388565037,1,-2,-29,-25,-15,-3,4,1
1534208388565037,2,-11,9,19,-13,-10,7,0
1534208388573080,-1,-9,20,6,4,13,3,3
1534208388573080,-8,5,-19,-5,7,15,2,-6
1534208388589109,0,4,22,1,0,-2,-9,-1
1534208388589109,1,-5,7,-1,1,7,4,-1
1534208388590066,-6,-4,-24,23,14,49,38,8
1534208388590066,10,-18,36,-24,-18,-29,-28,-1
1534208388611087,2,3,-13,-12,7,5,-2,-2
1534208388611087,0,-9,10,14,-2,-16,-9,-1
1534208388612066,1,-6,16,13,4,-1,-5,-2
1534208388612066,-3,-10,-4,-7,14,13,9,1
1534208388625115,1,-2,1,27,0,25,45,7
1534208388625115,6,-11,17,10,-2,-7,-25,1
1534208388633071,-6,3,-20,-25,2,-7,20,-4
1534208388633071,2,-4,32,47,0,-11,-13,-1
1534208388648037,-1,1,-4,-23,-2,-1,-10,-3
1534208388648037,-4,2,22,26,5,11,13,0
1534208388649065,2,-4,-13,-54,-8,-13,-13,-3
1534208388649065,-6,8,26,24,0,-7,-10,-5
1534208388672087,-1,0,-19,-22,9,-9,-14,1
1534208388672087,-5,-1,-14,0,1,11,33,1
1534208388673065,6,-2,39,22,-4,-22,-25,-3
1534208388673065,-2,3,5,25,10,0,-3,-3
1534208388694114,-5,7,-16,-11,-9,-1,-2,0
1534208388694114,-1,4,-33,17,9,-1,3,4
1534208388695065,-5,-39,58,-7,5,-1,-7,-4
1534208388695065,-3,11,16,20,-1,-9,-9,-6
1534208388708119,9,8,-48,-12,-8,-9,-17,2
1534208388708119,3,-4,21,-42,4,27,44,6
1534208388709064,1,15,1,31,5,-12,-8,1
1534208388709064,6,8,-26,-31,-16,8,3,0
1534208388731036,-7,8,26,61,0,-10,-13,-4
1534208388731036,-12,-9,-40,-78,-9,-13,-12,-7
1534208388732035,24,9,27,38,-1,16,13,8
1534208388732035,0,1,6,14,1,0,4,1
1534208388754064,-2,-1,-25,-18,9,-8,-20,-5
1534208388754064,-8,8,17,-6,-3,1,9,-3
1534208388755063,-7,-3,-16,5,-12,-15,-11,-4
1534208388755063,-2,8,-63,-62,-9,-11,-12,-4
1534208388768064,-2,0,60,67,12,13,10,1
1534208388768064,-4,-8,-43,-19,-2,-14,-14,-2
1534208388769064,4,15,-6,20,3,3,3,-2
1534208388769064,1,7,27,-1,-22,-7,6,0
1534208388799035,-1,-1,5,-24,4,-5,0,-3
1534208388799035,5,9,-2,18,-5,5,2,4
1534208388800063,4,-3,-10,-59,22,8,9,7
1534208388800063,-9,-13,69,66,20,0,-7,-2
1534208388814063,9,29,-79,-91,-24,-15,1,0
1534208388814063,0,-7,46,39,-2,-11,-34,-5
1534208388815063,1,4,-25,-9,-7,12,39,7
1534208388815063,2,-11,18,-6,9,3,4,1
1534208388828064,-2,22,6,26,9,14,8,0
1534208388828064,-4,2,-7,6,-5,-16,-28,-7
1534208388829064,-4,1,-15,-26,-5,2,2,2
1534208388829064,-5,5,-10,-12,-10,-5,-7,-5
1534208388851030,0,-13,24,69,22,11,3,3
1534208388851030,5,7,-10,-37,-8,8,21,4
1534208388852062,-3,9,35,22,-1,3,-14,-5
1534208388852062,6,-4,-15,-14,-2,-6,0,4
1534208388874063,-12,-16,-58,-57,5,16,9,-4
1534208388874063,-1,-5,9,19,-2,5,-3,-8
1534208388875064,2,4,-16,-19,-7,-8,-4,4
1534208388875064,-6,3,49,96,28,6,-2,-2
1534208388888062,-7,1,4,-27,-24,-14,-11,-4
1534208388888062,9,11,-8,-7,18,5,2,5
1534208388889062,-3,-12,-14,-2,-8,-19,-24,-4
1534208388889062,7,15,-57,-53,-3,39,32,10
1534208388911031,-5,-9,73,46,6,9,12,-4
1534208388911031,-6,-7,19,-7,-8,-3,-16,-3
1534208388912064,4,-3,-52,35,0,3,-12,-5
1534208388912064,-2,-10,-7,-45,8,34,44,5
1534208388934061,4,8,14,-12,-7,-12,-7,1
1534208388934061,5,5,5,-1,-3,-5,-4,-2
1534208388935062,-2,-10,8,5,-5,-14,-8,0
1534208388935062,5,0,7,43,5,-7,-20,-1
1534208388948033,0,18,-2,-23,-3,13,12,2
1534208388948033,-6,9,-13,29,7,1,2,-2
1534208388949061,1,25,53,-11,-4,-14,-24,-4
1534208388949061,-3,4,3,13,-14,-27,-13,-6
1534208388976000,4,0,-34,-42,-11,-2,21,3
1534208388976000,2,-6,-6,-5,-4,0,-1,6
1534208388976000,-5,0,-8,26,18,32,22,1
1534208388976000,-6,-12,-20,7,-23,-36,-52,-5
1534208388994061,11,-4,13,-3,14,29,57,8
1534208388994061,-7,-9,13,21,-4,-6,-6,-3
1534208388995061,1,-3,-41,-55,-2,1,-2,1
1534208388995061,1,5,41,59,3,-17,-14,-3
1534208389008060,-4,-15,-4,-13,0,-6,-21,-4
1534208389008060,-9,6,31,11,-1,8,5,-7
1534208389009061,17,-21,-1,-25,6,0,8,10
1534208389009061,-2,3,-30,-40,-6,2,2,-1
1534208389031030,-4,-10,55,123,24,3,-9,-5
1534208389031030,-12,13,-30,-106,-20,-8,-5,-5
1534208389032060,-9,1,-8,-6,-16,-24,-34,-7
1534208389032060,3,-4,47,58,23,25,48,3
1534208389054062,5,12,-21,-44,-15,-14,-17,1
1534208389054062,7,13,15,31,11,-1,9,10
1534208389055060,-11,-5,-28,-9,1,10,13,-6
1534208389055060,2,0,-35,-52,-10,-11,-15,-1
1534208389068060,-5,12,13,5,15,-2,-15,-4
1534208389068060,-1,-3,13,49,9,-15,-2,-2
1534208389076060,-3,7,17,-20,-1,40,27,1
1534208389076060,5,1,-7,2,2,2,3,2
1534208389091028,-6,11,-14,14,-12,-14,-14,-2
1534208389091028,0,2,-19,-54,-7,-4,-7,-3
1534208389092060,-2,8,46,106,29,-2,0,-4
1534208389092060,-8,0,-46,-97,-5,5,0,0
1534208389114031,-3,2,4,27,-7,-7,-2,2
1534208389114031,7,3,-69,-53,-12,7,2,2
1534208389115059,-6,11,45,44,-15,-25,-3,-6
1534208389115059,0,-10,7,25,14,48,38,8
1534208389128059,9,-1,-44,-110,8,-11,-9,5
1534208389128059,1,-5,29,79,-8,-4,-7,2
1534208389129028,-10,-4,-4,-26,1,-6,4,-5
1534208389129028,-8,20,4,11,-9,-34,-30,-9
1534208389151058,3,2,0,6,-2,36,15,1
1534208389151058,0,-8,7,10,13,3,4,2
1534208389153027,4,1,-7,-18,-6,-5,-6,0
1534208389153027,-5,-17,-11,-16,-5,-8,-9,-4
1534208389174058,-3,11,32,43,-1,-8,-8,-5
1534208389174058,0,2,0,-18,14,4,7,2
1534208389175058,-2,11,5,-6,-10,-5,-5,-2
1534208389175058,-2,-1,-27,-31,0,1,-2,-4
1534208389188059,6,12,5,13,-18,-18,-20,-3
1534208389188059,-3,-19,1,19,10,27,27,0
1534208389189059,6,-8,8,-10,-1,-16,-25,1
1534208389189059,5,3,-15,-6,-4,10,34,7
1534208389211027,-4,-17,9,11,9,-3,-11,-1
1534208389211027,-7,5,-12,9,-17,-12,-13,-6
1534208389212059,-6,0,-25,-27,12,17,12,-2
1534208389212059,6,3,47,33,-2,-13,-20,-2
1534208389234058,3,-18,-20,5,-3,-5,-5,-1
1534208389234058,3,-1,-5,-38,2,30,19,3
1534208389235058,-9,-5,-17,-1,-5,-9,-9,-3
1534208389235058,-4,0,8,4,1,-6,-11,0
1534208389249995,8,2,-4,-16,-3,3,15,3
1534208389249995,1,-5,-4,17,9,-6,-13,0
1534208389249995,-7,-12,1,0,-18,-14,-6,-3
1534208389249995,0,0,2,9,6,37,17,2
1534208389271027,-11,-10,1,-28,-3,-4,-9,-5
1534208389271027,2,7,5,17,-4,-14,-6,-3
1534208389273026,-2,8,12,-5,1,-11,-7,-2
1534208389273026,0,-5,-15,41,9,-4,10,0
1534208389294057,-5,6,-34,-35,-15,-4,-10,-1
1534208389294057,0,17,23,-8,4,9,8,2
1534208389296057,3,-4,-20,9,-6,-11,2,0
1534208389296057,-4,14,21,7,-4,-6,-16,-2
1534208389306995,1,-2,-22,14,10,5,4,0
1534208389306995,-2,5,13,-28,-5,-13,-6,-3
1534208389317057,1,8,24,19,-9,7,1,-2
1534208389317057,-4,1,-18,-32,3,-12,-11,-4
1534208389331024,4,10,39,20,-3,-5,14,3
1534208389331024,0,-1,-15,-19,1,23,3,0
1534208389333058,-10,-16,0,4,10,0,8,-3
1534208389333058,3,-2,-5,15,-4,-4,-11,-2
1534208389354058,-3,5,-5,-25,3,-9,-7,-2
1534208389354058,3,0,34,40,-3,4,8,0
1534208389356056,0,0,-13,-14,-4,-7,-8,1
1534208389356056,-4,-4,8,8,16,-1,-2,-1
1534208389366995,-2,-2,-47,-26,-7,6,4,1
1534208389366995,-3,-1,19,-7,-9,-24,-10,-4
1534208389377024,-1,-15,-6,13,9,-2,-22,-2
1534208389377024,4,-4,6,-2,0,29,40,6
1534208389391055,1,8,-4,-13,-5,-9,-12,-2
1534208389391055,2,-9,-19,17,-2,-7,-11,-4
1534208389396994,2,1,-8,-15,-2,17,22,5
1534208389396994,-7,-12,70,10,-5,-23,-19,-6
1534208389414057,-8,-6,21,47,3,12,8,1
1534208389414057,0,5,-21,-31,-7,-9,-9,-3
1534208389416054,3,7,-7,17,-1,-2,5,-2
1534208389416054,2,-5,-19,-4,1,-5,-17,-3
1534208389426993,3,12,33,7,-4,-9,14,1
1534208389426993,-4,-9,-35,-12,4,11,12,3
1534208389437054,5,2,22,-1,-2,17,19,4
1534208389437054,-1,13,-35,-54,-1,-3,-7,2
1534208389451023,-11,-7,30,46,9,-1,-9,-6
1534208389451023,6,10,-12,-1,-3,-16,-10,-1
1534208389453055,5,-8,-12,-15,2,-1,3,1
1534208389453055,1,7,-23,-22,-7,-3,1,-3
1534208389474054,-2,2,3,25,6,0,-6,-3
1534208389474054,-1,9,3,-14,-5,14,12,2
1534208389476055,-9,5,-6,8,-6,-13,-11,-6
1534208389476055,1,-6,3,5,-3,13,10,4
1534208389486992,2,4,0,-29,-6,2,0,1
1534208389486992,3,2,17,30,4,-2,2,3
1534208389504054,0,0,-34,-5,0,-4,-5,-3
1534208389504054,0,2,-27,-29,-10,-5,-10,-1
1534208389511022,-5,-2,3,-17,-10,-14,-15,-3
1534208389511022,-5,12,5,27,8,34,53,0
1534208389513022,-1,1,1,-28,-1,-8,-18,-1
1534208389513022,0,-4,56,64,2,-5,-5,-1
1534208389534054,7,-10,-36,-15,2,9,2,4
1534208389534054,-4,4,21,-14,-5,-20,-22,-1
1534208389536054,9,4,-17,8,2,3,11,4
1534208389536054,-1,-2,-14,-17,-4,-8,-6,-3
1534208389546992,0,5,25,24,9,1,-6,-4
1534208389546992,-7,-8,10,-6,-3,-10,-5,-1
1534208389557053,-4,-7,2,-19,-5,13,13,1
1534208389557053,11,6,8,-19,7,-5,-8,2
1534208389571022,0,0,-1,36,2,-5,2,0
1534208389571022,0,-3,4,-4,-2,-4,-4,0
1534208389573053,-4,-2,-17,22,-12,-10,-14,-1
1534208389573053,-8,5,-2,-6,8,3,-5,-8
1534208389594095,8,7,-25,-2,8,34,37,10
1534208389594095,3,-3,-1,11,-8,-22,-24,-3
1534208389596058,2,0,51,0,13,31,18,5
1534208389596058,5,14,-46,-29,-10,-24,-7,1
1534208389616064,-13,6,25,-3,-7,-4,-5,-6
1534208389616064,-4,7,-3,4,-7,-12,-16,-5
1534208389618053,3,3,2,33,2,0,-1,2
1534208389618053,1,-4,-37,-53,-7,-3,3,3
1534208389631020,1,10,58,78,14,16,6,0
1534208389631020,-8,-11,-25,-45,-7,-1,-1,-4
1534208389633021,1,1,4,17,0,-14,-10,-2
1534208389633021,-6,-1,-7,14,-4,8,5,-3
1534208389654101,12,9,-38,-63,-7,-6,-1,3
1534208389654101,-1,3,-48,25,-4,-14,-15,-4
1534208389656052,-3,11,15,-34,2,-8,6,-2
1534208389656052,-2,2,41,14,-7,3,4,5
1534208389676073,-5,-11,-64,-23,-7,-14,-13,-6
1534208389676073,3,5,31,16,1,5,3,0
1534208389678058,-3,2,-9,-37,-5,-19,-18,-3
1534208389678058,5,14,19,35,13,41,30,8
1534208389691101,-2,-5,26,-12,-9,-8,-9,-1
1534208389691101,3,7,-13,-14,1,-6,5,0
1534208389696990,-1,4,-29,33,-1,-3,-3,-4
1534208389696990,-3,-6,16,0,-6,-15,-14,-2
1534208389714054,-2,9,16,-2,4,22,17,3
1534208389714054,4,-6,-38,-9,-5,-3,-8,3
1534208389716051,1,-1,16,-3,4,-4,2,-2
1534208389716051,-4,-9,1,19,0,-3,1,-5
1534208389736073,1,-12,-31,-40,-7,7,-6,0
1534208389736073,-4,2,23,9,8,8,10,1
1534208389738051,-1,-3,1,36,0,5,4,4
1534208389738051,1,-5,-26,-17,4,11,21,4
1534208389750100,-4,0,-10,-49,-1,-3,1,3
1534208389750100,5,-15,36,59,6,1,-1,3
1534208389759100,-2,0,-2,-26,1,5,-3,-5
1534208389759100,-5,-2,-24,-10,-9,-13,-21,-5
1534208389774049,5,-14,7,18,6,-9,2,3
1534208389774049,0,2,-22,-24,7,14,5,0
1534208389776050,1,9,7,25,-1,-7,-4,3
1534208389776050,6,1,61,3,2,1,-2,2
1534208389796016,5,13,-30,-55,-8,-6,12,2
1534208389796016,-7,3,-21,22,2,-5,-13,-2
1534208389798022,4,4,-3,-18,-9,-15,-6,-3
1534208389798022,0,0,14,9,10,8,-8,0
1534208389810092,4,-5,3,8,4,12,0,-2
1534208389810092,-6,-4,-13,-30,-17,-14,-6,-3
1534208389819050,-8,-16,1,9,6,11,2,-1
1534208389819050,1,3,-34,-25,-1,3,23,3
1534208389834095,0,3,21,38,-8,-11,-12,-3
1534208389834095,1,-7,-8,-56,-3,0,5,-2
1534208389836050,-1,-4,7,9,7,-3,-13,0
1534208389836050,-2,-2,-25,-12,2,1,-2,-1
1534208389856017,-2,-10,21,24,-7,0,8,0
1534208389856017,-1,20,41,26,-1,-1,-5,-1
1534208389858023,4,-6,3,-1,0,3,14,1
1534208389858023,1,5,-12,-9,-9,-15,-13,-3
1534208389871048,-5,-6,-39,4,19,-1,-4,-5
1534208389871048,-6,-3,11,-14,5,6,-2,-2
1534208389876986,0,-5,4,17,-4,24,5,5
1534208389876986,0,-15,-43,-26,7,1,18,-1
1534208389894091,-1,1,20,34,0,-12,-11,-2
1534208389894091,-2,-5,-17,-43,-10,-7,-17,-3
1534208389896052,1,6,9,-17,9,21,50,5
1534208389896052,-3,1,39,86,2,0,-13,-3
1534208389916060,0,-3,-70,-43,-12,-9,-2,3
1534208389916060,5,3,10,16,1,-6,-3,2
1534208389918049,-5,-6,22,-19,-7,-5,-8,-6
1534208389918049,0,6,3,-6,0,10,2,-2
1534208389931020,-2,0,15,15,13,-1,8,-2
1534208389931020,5,1,18,19,-5,2,12,4
1534208389937029,5,-6,6,-7,-12,-21,-17,0
1534208389937029,-4,-3,-7,-22,7,9,5,-2
1534208389954090,3,11,55,51,2,-6,-18,-5
1534208389954090,-2,-21,-67,-52,2,40,34,8
1534208389956048,-3,4,16,19,-13,-20,-23,-6
1534208389956048,-1,0,8,-1,2,-11,13,1
1534208389976069,-7,-15,-28,-34,3,30,17,1
1534208389976069,2,4,20,16,-1,-17,-7,-3
1534208389978048,3,6,-24,0,2,3,-4,1
1534208389978048,0,7,10,23,-12,-14,-20,-4
1534208389990097,-2,-5,5,-29,-9,-5,-4,-3
1534208389990097,-1,0,21,32,10,7,3,-1
1534208389999047,0,-4,9,29,8,20,5,2
1534208389999047,1,12,-7,-42,-6,-7,-10,-1
1534208390014050,-4,-4,8,4,-4,-5,-2,0
1534208390014050,-2,3,-3,11,1,-9,-8,-4
1534208390016047,1,7,12,-12,0,-22,-9,-2
1534208390016047,-2,-2,20,27,-3,17,-2,2
1534208390036069,-2,-6,-33,-26,-10,-18,5,-3
1534208390036069,0,5,-11,-4,14,30,36,8
1534208390038048,-1,-8,22,23,7,7,2,0
1534208390038048,-4,-10,15,2,8,4,-1,2
1534208390050096,-2,-10,8,-2,-5,-13,-12,-1
1534208390050096,3,2,-2,12,-6,-16,-18,-3
1534208390059020,-3,5,-45,-33,3,-1,-3,-3
1534208390059020,-2,-2,-11,-11,-13,-12,4,0
1534208390074099,7,15,4,-2,4,18,9,6
1534208390074099,-4,2,40,48,-13,-6,-4,-4
1534208390076052,-1,8,-1,-45,18,9,-2,-1
1534208390076052,-6,-9,18,51,-8,-18,-15,-3
1534208390096064,1,10,-30,-43,-5,-5,1,-1
1534208390096064,-3,4,30,8,-5,-5,-5,-2
1534208390098018,-3,2,-13,5,-5,1,1,-2
1534208390098018,8,-7,-34,-12,4,7,4,2
1534208390110098,-2,4,42,1,6,2,1,-3
1534208390110098,-5,-15,-6,-14,18,12,-2,-1
1534208390119046,-1,-4,-24,-3,-7,-6,21,-1
1534208390119046,7,19,31,20,8,-8,-4,5
1534208390134097,-5,-9,-10,10,-10,-7,-18,-3
1534208390134097,4,-12,-16,-4,6,6,6,5
1534208390136046,3,-3,-36,-39,-6,0,0,0
1534208390136046,0,-5,22,19,4,1,-2,-2
1534208390156063,1,14,-10,-21,-1,0,1,1
1534208390156063,-8,2,-7,9,-14,-15,-14,-7
1534208390158047,-1,-4,20,11,2,0,-4,-3
1534208390158047,6,-1,-24,-19,-3,4,0,2
1534208390170097,3,14,37,15,-1,-7,-6,2
1534208390170097,-3,-3,-28,-42,-2,-6,-2,-2
1534208390179013,-2,-1,17,64,2,4,4,-1
1534208390179013,-7,6,-11,-41,-4,-1,2,-3
1534208390194042,-7,-1,10,32,-5,-15,-13,-6
1534208390194042,-6,-11,-10,-36,-20,-2,-15,-4
1534208390196044,11,2,15,9,4,13,36,8
1534208390196044,-3,2,-36,-15,-8,-10,-15,-1
1534208390216014,0,2,12,-14,4,17,20,2
1534208390216014,-4,-1,22,-14,-2,-10,-14,0
1534208390218045,-4,-14,-27,39,-4,-13,-29,-2
1534208390218045,-2,6,57,-1,-3,6,3,1
1534208390230091,16,-4,-13,4,4,5,10,5
1534208390230091,-7,10,-31,-1,-3,-9,0,-6
1534208390239044,-3,10,-14,-37,-1,4,-3,-4
1534208390239044,-2,-16,-29,7,2,-6,-8,0
1534208390254088,0,1,14,41,-5,8,-5,-1
1534208390254088,1,11,12,-40,8,1,10,0
1534208390256044,-9,-1,-10,-14,-4,-20,-16,-6
1534208390256044,8,-1,8,14,-9,-1,-7,2
1534208390276065,-3,1,1,-3,13,13,17,-1
1534208390276065,5,6,-29,32,-7,-8,-8,1
1534208390278061,-6,4,16,-7,-4,7,13,2
1534208390278061,-3,14,-4,12,0,-10,-16,-6
1534208390290094,-5,-14,-26,-48,-1,-4,2,3
1534208390290094,2,6,47,70,-2,6,12,1
1534208390299044,2,-7,-45,-31,0,-8,-7,-1
1534208390299044,7,-2,-6,-4,-2,-3,4,1
1534208390314046,-1,6,27,11,-1,1,-1,2
1534208390314046,-1,-5,3,33,12,9,4,-5
1534208390316015,-3,-1,-49,-64,-9,-9,-15,-4
1534208390316015,2,-1,7,5,8,18,20,0
1534208390336061,-6,10,-27,-19,-10,-5,-3,-2
1534208390336061,1,-2,-4,-9,17,0,-4,1
1534208390338096,0,-3,-23,15,10,4,-21,-1
1534208390338096,4,0,0,19,5,-7,29,2
1534208390350093,-6,5,31,16,-2,3,-24,-7
1534208390350093,4,0,-13,-6,-10,-11,18,1
1534208390359046,4,1,12,-17,0,-5,-7,3
1534208390359046,-5,1,-11,-6,0,13,3,-1
1534208390374095,1,6,5,22,-1,-14,-5,0
1534208390374095,-2,2,20,-11,-2,1,3,-1
1534208390376095,-2,9,11,38,2,1,-3,-1
1534208390376095,6,-1,-28,-56,1,-1,-3,-1
1534208390396060,-3,-1,-4,17,1,-1,2,0
1534208390396060,-2,4,-6,0,16,4,-2,1
1534208390398014,3,4,40,-5,-8,5,12,-1
1534208390398014,2,-12,-15,34,18,4,-11,1
1534208390410094,-4,4,-9,2,-11,-8,1,-6
1534208390410094,3,9,-36,-69,3,-8,-18,3
1534208390427056,-1,-2,22,50,3,30,43,3
1534208390427056,1,11,45,25,2,5,-6,4
1534208390434094,-2,5,-33,-41,-5,-11,2,-1
1534208390434094,-1,3,12,12,-7,15,6,-1
1534208390436042,-1,4,11,-4,-1,-14,-12,-3
1534208390436042,-3,7,-9,-13,-4,-2,-9,-5
1534208390456059,-4,4,-15,12,0,0,-1,-3
1534208390456059,0,-8,26,6,2,-5,-3,-1
1534208390458041,-1,0,-6,-16,-9,2,-3,-1
1534208390458041,-5,3,0,14,3,-4,0,-5
1534208390470094,-1,2,1,5,3,2,-3,0
1534208390470094,-4,-3,8,8,-12,0,4,-3
1534208390479041,2,-5,35,37,6,-4,-7,-1
1534208390479041,-4,-12,-32,-44,0,-1,4,2
1534208390494092,2,1,22,12,9,8,-7,-2
1534208390494092,-1,5,23,23,-3,-6,-17,1
1534208390496042,2,-3,-3,-7,-8,-3,2,0
1534208390496042,-6,-6,20,4,2,11,12,-1
1534208390516058,5,-14,-41,-30,-7,-8,-9,-3
1534208390516058,5,0,-17,-13,-3,-4,4,0
1534208390518041,-2,-21,33,-2,4,-7,-17,-1
1534208390518041,-2,8,-19,8,-13,-5,12,-5
1534208390530094,-1,-3,-5,-3,33,12,5,6
1534208390530094,-3,-1,-5,29,-11,-3,-1,-3
1534208390539043,5,15,21,-41,-7,-7,-3,-2
1534208390539043,0,-2,1,-10,0,0,-3,4
1534208390554091,-4,8,11,28,1,0,1,-4
1534208390554091,6,-8,-48,-46,-4,0,8,1
1534208390556042,-7,-8,12,9,4,4,0,-2
1534208390556042,-2,6,5,10,-1,-5,-5,-2
1534208390576061,-3,11,-6,-8,-13,1,0,4
1534208390576061,-5,-2,7,12,0,1,3,1
1534208390578039,12,1,-30,-1,-10,10,19,4
1534208390578039,1,3,-3,-44,-5,-20,-24,-7
1534208390599042,-5,0,0,12,6,5,3,0
1534208390599042,-8,1,-1,-8,-8,-16,-22,-2
1534208390601040,0,6,-19,22,-2,14,29,2
1534208390601040,0,-2,47,9,6,10,1,-1
1534208390614013,-4,0,-89,-37,-12,-17,-12,-6
1534208390614013,5,-4,69,1,7,12,7,2
1534208390616039,-6,14,-22,8,2,-12,-18,-3
1534208390616039,3,1,34,31,5,-4,-7,-1
1534208390636008,-2,9,25,-17,-8,5,8,1
1534208390636008,-4,4,-26,6,4,-8,-8,-3
1534208390638038,1,6,-53,-7,10,6,0,2
1534208390638038,4,7,5,9,-6,9,10,2
1534208390659039,2,4,43,-3,-4,-7,-1,0
1534208390659039,4,4,-30,-19,6,14,15,1
1534208390661006,-4,10,23,9,2,4,-3,1
1534208390661006,-13,-7,-9,20,2,0,4,-4
1534208390674038,7,4,2,-27,-7,5,3,7
1534208390674038,-3,11,15,7,-2,-9,0,-3
1534208390676022,7,3,-21,27,3,23,9,7
1534208390676022,-2,2,-33,-47,-10,-19,-6,-3
1534208390696008,3,2,17,29,7,20,5,3
1534208390696008,1,13,1,-27,-10,-8,0,-3
1534208390698010,-6,8,38,-2,0,-11,-15,-4
1534208390698010,1,8,-24,24,-5,-7,-19,-2
1534208390719037,-3,-4,11,-1,-2,-7,7,-4
1534208390719037,2,14,-3,0,1,13,14,3
1534208390721007,1,-11,16,8,-1,-12,-4,-1
1534208390721007,1,13,-19,-22,8,4,2,0
1534208390733039,-5,-5,9,21,2,4,2,-2
1534208390733039,-3,1,7,12,3,0,-7,-4
1534208390740037,3,0,25,12,-6,-12,-3,-1
1534208390740037,-1,3,-8,-6,9,-4,0,-1
1534208390756048,0,-6,15,29,-3,13,8,2
1534208390756048,-4,2,-28,-18,-5,-10,-5,-1
1534208390758040,1,10,4,-11,-4,21,10,-1
1534208390758040,5,-4,5,-8,1,-8,-17,3
1534208390779083,-3,-6,-41,-3,0,7,11,-1
1534208390779083,-9,-1,-3,9,-3,0,0,-2
1534208390781037,9,7,0,21,20,-6,-15,3
1534208390781037,-2,2,15,-56,0,8,3,-2
1534208390793085,-7,8,3,20,-17,-8,2,-5
1534208390793085,6,-3,-6,-5,1,9,2,5
1534208390800089,-11,-9,7,-7,-7,-14,-8,-7
1534208390800089,6,-4,-2,29,13,10,11,2
1534208390816008,-3,-1,15,-9,-4,-14,-25,-5
1534208390816008,0,-4,2,-7,7,-3,1,4
1534208390818036,-6,6,-13,-14,-8,-21,11,-2
1534208390818036,-9,-2,13,29,-8,24,17,0
1534208390839089,7,10,-43,-66,-6,-7,-3,-1
1534208390839089,2,-3,-48,14,-3,-9,-13,-1
1534208390841007,-2,-7,-14,-17,-4,11,14,3
1534208390841007,2,-3,18,16,-7,1,10,6
1534208390853085,-5,12,12,-3,0,-10,-11,-6
1534208390853085,-3,-2,2,17,9,10,12,-1
1534208390860035,-7,2,-20,2,4,5,-13,-6
1534208390860035,-2,4,6,22,-10,-10,-25,-1
1534208390876007,15,-7,39,0,4,10,60,8
1534208390876007,-3,-14,-36,-29,11,-1,-7,-1
1534208390878039,-2,-4,3,-19,-1,8,-2,-1
1534208390878039,-1,0,-11,19,2,-4,-9,1
1534208390899010,-4,0,11,27,1,-7,-17,-2
1534208390899010,3,-13,11,11,-8,-4,-5,-2
1534208390901036,1,4,-7,-39,1,-1,4,1
1534208390901036,0,-1,-13,-23,-1,2,5,-2
1534208390913033,0,-1,31,31,4,-10,-12,-2
1534208390913033,-6,0,33,37,-3,1,9,-4
1534208390920033,0,3,-22,-36,-5,3,-13,-1
1534208390920033,1,-3,-52,-30,-9,-6,7,1
1534208390936001,5,-5,6,23,25,-3,-12,6
1534208390936001,2,19,29,-5,-3,-12,-5,0
1534208390938035,-7,4,34,38,5,2,9,0
1534208390938035,0,-1,-16,-41,-5,-12,-7,-6
1534208390959077,-11,2,-24,-14,-13,-9,-22,-7
1534208390959077,7,13,-20,-17,-6,7,15,6
1534208390961004,-2,-6,29,-1,0,-9,-11,-2
1534208390961004,-1,9,43,27,9,5,2,0
1534208390973034,1,-5,-49,-59,-23,-8,-9,-2
1534208390973034,-6,-6,24,52,18,7,-3,-1
1534208390980973,11,11,10,11,3,-4,-4,2
1534208390980973,-2,-2,-56,-26,2,-1,9,0
1534208390996045,5,20,16,-4,-9,0,2,3
1534208390996045,-4,-5,-8,-8,2,0,-7,-4
1534208390998006,3,3,16,68,0,-14,-5,-3
1534208390998006,-5,3,3,-33,2,11,-2,-3
1534208391019076,-1,-11,-24,-16,3,18,22,6
1534208391019076,7,15,13,9,-7,-4,-1,2
1534208391021034,-3,-5,-23,16,5,-4,-1,0
1534208391021034,-3,8,37,34,-6,-9,-5,-1
1534208391033034,-4,12,19,5,19,4,-11,-5
1534208391033034,-8,-12,-10,-42,-7,-2,0,-3
1534208391040002,-5,-11,-22,-30,1,2,-2,-1
1534208391040002,7,9,-22,-4,-7,3,7,4
1534208391056002,-5,-7,1,39,6,-8,-3,-3
1534208391056002,-10,-6,35,7,-1,18,-3,-4
1534208391058033,3,5,-49,-42,-1,-2,-1,0
1534208391058033,1,-7,0,10,4,-1,5,0
1534208391079031,-2,4,-4,0,-9,-9,-13,0
1534208391079031,8,14,-16,-4,1,6,19,1
1534208391081001,-2,0,6,10,-9,-4,-6,0
1534208391081001,-1,7,14,-4,2,5,0,-1
1534208391092015,-6,1,-13,-23,-7,-5,-1,-4
1534208391092015,-2,-7,-36,-13,-1,-10,-11,0
1534208391102033,8,11,8,1,-11,4,12,4
1534208391102033,-1,11,-18,-5,4,-8,-6,-2
1534208391116001,-8,4,40,3,3,15,18,-5
1534208391116001,7,6,14,17,-3,1,1,7
1534208391118004,5,4,-13,-19,-3,-1,8,3
1534208391118004,2,1,14,38,-2,-4,0,1
1534208391139075,-1,-6,-28,-19,1,-1,-5,-3
1534208391139075,-7,-4,26,-33,-1,-6,-8,-4
1534208391141078,5,15,-39,4,0,-13,-16,-5
1534208391141078,-8,-3,-12,-6,-5,-11,-15,-4
1534208391152013,8,20,74,62,7,12,18,8
1534208391152013,13,5,-34,-63,-9,7,26,-1
1534208391162032,-13,-25,15,37,4,9,-3,0
1534208391162032,-13,-2,10,-21,-13,-18,-10,-1
1534208391176046,9,12,-34,-3,0,-3,-7,2
1534208391176046,-2,-23,38,7,3,-2,-5,-1
1534208391178034,6,10,-27,-31,-3,-11,-8,-3
1534208391178034,9,-6,5,23,12,24,13,5
1534208391199031,-6,-8,-4,-12,-15,-21,-13,-3
1534208391199031,1,7,5,-13,8,21,10,3
1534208391201000,0,18,61,83,16,-1,-17,-4
1534208391201000,6,-12,14,-6,9,9,27,1
1534208391212012,-1,-16,-31,3,-12,27,34,13
1534208391212012,1,-4,-25,-34,-15,-18,5,-9
1534208391222031,81,-38,-6,18,-5,-65,-98,3
1534208391222031,-94,-4,7,-13,2,44,69,1
1534208391238002,-38,10,38,82,31,75,67,-8
1534208391238002,-14,-6,-30,-43,0,-9,-88,-1
1534208391240002,-8,14,-16,12,-9,11,20,-15
1534208391240002,31,-28,-22,-29,-8,-43,-66,7
1534208391260073,12,-9,-75,-112,-15,-24,-4,7
1534208391260073,-10,2,77,55,1,7,19,-4
1534208391262031,-17,14,13,20,13,-2,7,9
1534208391262031,18,1,-28,-12,-12,-8,-7,2
1534208391272011,-5,-22,29,27,1,-1,-5,3
1534208391272011,15,19,4,12,-5,-13,-2,3
1534208391282001,-15,-5,-1,-47,1,9,9,1
1534208391282001,9,19,21,23,2,9,10,-5
1534208391296041,0,2,-10,-4,1,-18,-24,-15
1534208391296041,-7,-10,5,31,-6,-9,-5,6
1534208391298968,-6,-11,-11,-64,-11,12,32,4
1534208391298968,-3,26,-7,-16,20,-2,-14,-14
1534208391319072,-3,-8,-14,0,-70,-28,-34,-3
1534208391319072,5,7,20,86,80,25,19,10
1534208391320999,-6,18,-11,-23,-19,15,23,0
1534208391320999,24,3,11,-17,-4,-4,-14,6
1534208391331968,1,0,-26,-37,-1,-23,-26,-7
1534208391331968,-13,5,-24,-14,-25,-4,2,-8
1534208391342029,-9,-2,2,-5,21,22,16,-5
1534208391342029,0,5,11,-72,-1,-10,-14,-3
1534208391356040,-1,6,35,46,8,-5,-8,-2
1534208391356040,5,9,-6,87,-8,-8,1,-1
1534208391358030,4,11,-64,-84,-6,7,6,8
1534208391358030,-6,16,39,22,-15,-23,-29,-10
1534208391379075,-3,-10,-53,-94,8,-15,-18,-8
1534208391379075,3,13,13,72,1,10,33,2
1534208391381029,-9,-9,-6,-73,-14,-19,-50,24
1534208391381029,22,17,45,120,3,-64,-63,-23
1534208391392010,16,14,24,-46,34,76,91,4
1534208391392010,-78,-58,32,73,18,-37,-85,23
1534208391402028,51,33,-25,-91,11,46,33,-44
1534208391402028,71,-1,-58,95,-3,42,12,69
1534208391415999,-99,-60,65,20,-5,-57,-75,-31
1534208391415999,-11,15,-3,-53,-16,-23,-14,-15
1534208391418028,35,-17,-35,-65,19,39,63,27
1534208391418028,5,-12,39,-22,-12,-12,-27,-17
1534208391438029,46,24,-57,-28,-11,-14,27,0
1534208391438029,30,-15,-95,-128,-49,-6,-9,-18
1534208391447028,-37,8,107,127,50,-62,-44,-3
1534208391447028,81,48,-37,-128,-23,61,88,-16
1534208391451967,-13,7,32,-52,6,-41,-41,13
1534208391451967,-38,-25,-93,16,-1,-14,-16,-8
1534208391462028,-11,-17,94,53,10,18,53,68
1534208391462028,34,58,-105,-61,-80,-8,4,33
1534208391476027,-45,1,103,84,6,-8,-59,76
1534208391476027,97,109,-86,-86,-4,33,32,54
1534208391481966,59,-31,-87,68,-50,-80,14,-89
1534208391481966,-123,-52,-4,10,54,-66,-92,-47
1534208391498998,-28,74,-72,65,19,64,58,-10
1534208391498998,-25,-57,56,-128,-43,-26,-42,23
1534208391501027,17,-53,127,127,34,36,-22,29
1534208391501027,61,19,-16,52,33,-14,15,-35
1534208391520996,127,-41,68,13,-9,-36,1,51
1534208391520996,-28,-4,113,52,21,7,4,-58
1534208391523027,-41,10,-38,8,7,25,14,-38
1534208391523027,19,-12,89,69,8,-20,-49,-3
1534208391536025,-104,-2,27,-72,4,21,45,-4
1534208391536025,54,40,127,109,47,21,47,22
1534208391541963,-49,69,-102,-128,-23,27,2,55
1534208391541963,-13,-52,-41,-77,-38,-42,-20,-3
1534208391559025,-89,37,21,97,36,18,0,-27
1534208391559025,55,12,-75,-128,-31,32,49,-50
1534208391560995,39,-9,75,80,15,9,27,-21
1534208391560995,-128,33,-9,-32,3,37,26,19
1534208391580967,22,-42,-37,-51,-34,-15,-21,-29
1534208391580967,-105,-15,-109,-14,-3,-62,-78,-39
1534208391583027,49,14,13,127,25,-9,-6,70
1534208391583027,-16,-24,23,24,-20,42,42,68
1534208391596024,-10,3,-88,-126,-38,-59,-53,-73
1534208391596024,-25,-14,74,127,24,21,2,-14
1534208391601964,-67,-7,91,-85,-18,-10,-9,20
1534208391601964,55,7,0,-85,-12,-17,15,-19
1534208391619025,88,-15,-6,51,18,1,-6,7
1534208391619025,13,17,56,-106,22,18,18,18
1534208391620997,-28,34,-97,21,-48,-12,-25,-31
1534208391620997,-20,-37,68,67,0,9,16,11
1534208391640994,-15,-17,-16,-85,16,24,9,-19
1534208391640994,64,-10,18,62,-8,-1,1,0
1534208391643025,-52,-4,-11,-122,-44,-7,-28,-22
1534208391643025,25,16,-113,-2,40,-5,7,-9
1534208391656068,27,7,98,64,-14,7,-1,16
1534208391656068,-28,-32,-87,-80,-21,-12,7,15
1534208391662006,11,0,7,6,14,-14,-22,-30
1534208391662006,-29,-11,59,14,-7,13,11,-6
1534208391679070,7,-4,-8,28,-33,-10,-4,1
1534208391679070,37,2,-67,2,19,1,-3,8
1534208391680994,-18,8,10,-1,21,10,-2,-7
1534208391680994,-4,6,-33,20,10,6,0,-15
1534208391701037,39,-11,-128,-69,-17,-15,-10,11
1534208391701037,-9,6,-21,50,4,-11,-3,-5
1534208391703024,3,3,-6,-60,-63,-13,-8,-9
1534208391703024,12,1,60,43,46,27,4,-6
1534208391724073,17,5,-4,62,105,33,11,8
1534208391724073,4,-4,-6,-1,-52,-24,8,17
1534208391726029,17,-2,-23,11,67,27,12,0
1534208391726029,20,-2,-22,-37,-28,-19,-10,2
1534208391739045,-18,-9,1,-27,-19,-12,0,-4
1534208391739045,-3,-1,8,22,-4,2,-4,-13
1534208391741030,11,-1,45,22,53,-1,-8,-14
1534208391741030,-27,-5,-12,-20,14,15,6,-16
1534208391761041,-2,0,-25,19,-3,10,-3,-4
1534208391761041,13,2,37,-74,-8,-10,6,9
1534208391763023,17,-4,-35,-19,-40,-10,1,13
1534208391763023,-49,6,-7,-19,52,4,-20,-39
1534208391775075,-32,11,44,85,-15,24,-4,-29
1534208391775075,80,-31,-16,24,108,54,35,66
1534208391784024,70,6,2,-50,-12,7,21,65
1534208391784024,54,3,22,-44,-49,-12,-18,19
1534208391799025,17,-19,-6,-8,-40,-24,-12,-13
1534208391799025,-10,-8,-10,-3,-11,5,2,10
1534208391800992,7,-1,0,26,-9,-12,-7,13
1534208391800992,-12,26,25,-22,35,-4,-5,-5
1534208391821041,-56,4,-18,1,-3,-30,-32,-51
1534208391821041,-85,-7,3,15,-24,-31,-20,-93
1534208391823023,-85,-3,2,16,20,4,-14,-59
1534208391823023,5,-4,-6,0,-45,-9,20,23
1534208391835075,123,-52,-17,-16,-2,6,41,124
1534208391835075,-8,37,6,15,-10,-3,-17,-18
1534208391844026,19,10,-21,-29,-32,-25,-15,-12
1534208391844026,8,-21,-44,0,16,21,33,1
1534208391859072,16,18,34,19,-58,-23,4,13
1534208391859072,3,23,-39,-64,25,8,-21,4
1534208391861045,-71,50,-61,-22,9,1,-18,-60
1534208391861045,-11,-20,73,90,-26,23,11,-6
1534208391880990,-33,-30,-51,-8,-45,-11,-7,-15
1534208391880990,-4,83,87,127,-1,-32,-3,9
1534208391884022,59,-56,-36,42,-20,15,10,5
1534208391884022,14,3,-78,-46,23,2,-7,6
1534208391894993,-46,61,-25,-99,-23,-29,-30,-25
1534208391894993,-8,-28,60,102,22,-33,-20,-9
1534208391904022,-23,46,113,110,17,70,9,21
1534208391904022,58,-93,-75,-48,-69,-39,71,32
1534208391919025,47,88,0,-72,-8,6,-30,-3
1534208391919025,-6,-46,-51,-5,-47,-70,-60,-2
1534208391920990,3,43,-7,-128,52,21,71,1
1534208391920990,-38,-11,103,127,19,9,-24,-6
1534208391940988,17,-8,-7,-19,22,-9,-20,-3
1534208391940988,-3,-8,-15,-53,-24,34,-24,8
1534208391943021,-2,-6,-9,20,43,-13,35,-4
1534208391943021,-47,55,27,-47,-7,-3,-29,-27
1534208391955070,-32,-7,2,21,12,6,15,-16
1534208391955070,34,-28,75,74,5,49,31,22
1534208391964021,-13,-3,-106,-68,6,-55,-42,-9
1534208391964021,-23,12,14,-61,-2,8,-7,-16
1534208391979067,-2,21,43,-24,17,52,73,18
1534208391979067,-30,2,83,65,18,-7,-32,-21
1534208391980992,62,-15,-64,-41,-25,11,30,16
1534208391980992,111,1,-43,-90,-28,-16,10,24
1534208392001035,9,16,56,64,0,-12,-22,23
1534208392001035,-27,34,27,2,-13,-22,2,-8
1534208392003021,-21,-23,68,106,-1,37,48,-2
1534208392003021,-40,22,-59,-76,34,-25,-90,-18
1534208392015020,-9,-34,63,78,-4,18,49,-14
1534208392015020,-26,29,-105,-122,13,-11,-20,-14
1534208392024023,1,-31,34,-26,-33,-35,-79,-1
1534208392024023,-16,0,42,127,-8,-18,6,-12
1534208392039071,47,-29,-38,-78,54,-8,-24,29
1534208392039071,35,-26,-49,-30,18,15,39,26
1534208392040989,-13,75,-25,-47,-29,-27,-39,-25
1534208392040989,-16,-38,-6,-50,24,-7,-5,18
1534208392061038,-27,31,-37,23,22,23,15,-10
1534208392061038,-16,3,53,-5,19,19,32,-1
1534208392063020,-16,-36,-42,-27,-24,-39,-67,-25
1534208392063020,1,48,47,71,9,89,51,7
1534208392075072,-2,-13,-46,17,8,13,50,4
1534208392075072,29,-5,-128,-128,-28,32,48,12
1534208392084019,-28,1,91,32,1,-33,-36,1
1534208392084019,-12,-10,30,69,5,-12,-44,-1
1534208392098991,1,-21,-13,-20,4,12,-2,4
1534208392098991,8,22,23,39,-7,22,26,-4
1534208392101019,9,4,-31,-24,-5,-12,-20,4
1534208392101019,19,4,23,53,25,37,18,19
1534208392121038,7,-8,-92,-78,-24,-21,-20,-15
1534208392121038,-28,8,84,80,22,-16,-44,-5
1534208392123024,0,15,-42,47,-6,-19,32,7
1534208392123024,4,24,19,-6,-33,-33,-17,-17
1534208392135071,-29,20,8,40,29,58,56,15
1534208392135071,12,-21,-16,-63,-52,-30,-40,3
1534208392144018,31,-30,-13,-5,17,6,-5,14
1534208392144018,10,24,-63,-73,-7,-65,-51,-24
1534208392159068,-18,-26,46,10,15,-12,3,5
1534208392159068,26,11,18,37,-2,50,35,1
1534208392160987,-17,-20,34,32,22,53,-36,7
1534208392160987,-3,2,-26,-14,-2,38,106,9
1534208392180987,-10,7,0,-73,-22,-61,-98,10
1534208392180987,83,-22,-61,-13,-10,-31,13,-42
1534208392183018,-60,-12,98,80,13,-15,-17,16
1534208392183018,8,5,-40,-33,-18,-14,-41,-25
1534208392195067,-52,32,-3,1,4,-5,18,3
1534208392195067,-18,2,-3,68,0,7,-10,18
1534208392204018,38,-32,-3,-71,-32,-16,-4,0
1534208392204018,-7,-20,-66,-6,-22,-43,-46,0
1534208392219067,-9,3,23,-1,21,-69,-89,-45
1534208392219067,-26,-2,33,82,13,40,24,13
1534208392221017,-79,25,-39,-13,27,78,91,-5
1534208392221017,69,-24,31,28,6,29,38,52
1534208392241038,28,-10,-6,-62,-18,-28,-48,-17
1534208392241038,-28,-29,-4,-33,-10,-15,-12,-20
1534208392243017,108,-7,-76,-65,-21,-17,-23,-18
1534208392243017,-99,-1,106,-28,10,-47,2,14
1534208392255066,84,-65,-80,-7,-37,30,26,13
1534208392255066,-18,61,104,-99,54,-56,-62,-84
1534208392264018,-28,-25,-25,87,-44,22,57,70
1534208392264018,62,7,-46,118,44,31,38,39
1534208392279038,41,22,68,9,-32,-110,-128,-14
1534208392279038,-128,13,-69,-121,-24,48,31,-10
1534208392280985,59,8,32,-119,27,-51,-31,-54
1534208392280985,-103,32,42,100,-21,8,3,-50
1534208392301037,-107,-19,82,-17,6,41,15,67
1534208392301037,70,-31,-121,-30,-22,-33,-9,18
1534208392303016,60,11,32,-93,-37,-40,-53,-29
1534208392303016,29,-38,16,-49,7,-3,-1,51
1534208392315015,65,12,123,127,58,13,-5,-35
1534208392315015,-47,-15,-115,-87,-36,-85,-40,15
1534208392323980,44,15,48,127,31,98,97,-26
1534208392323980,-70,3,-108,-95,2,12,-71,-16
1534208392339017,-25,-26,6,-68,-30,-6,24,-15
1534208392339017,106,-13,6,13,-3,-25,-24,42
1534208392341015,3,12,-67,33,32,-39,-38,2
1534208392341015,-10,1,48,-50,-74,1,34,-6
1534208392362065,-8,4,11,127,45,33,3,5
1534208392362065,-51,-44,8,-30,6,19,27,4
1534208392364016,-28,12,-25,-8,-34,-22,-22,33
1534208392364016,35,5,-57,-89,11,-12,2,-24
1534208392375067,11,8,-23,34,-5,23,3,9
1534208392375067,71,6,36,5,-4,38,43,15
1534208392384015,-39,1,38,127,37,2,7,31
1534208392384015,-46,3,15,-105,-29,-26,-21,-30
1534208392397987,20,1,-44,40,-2,-2,-2,-21
1534208392397987,66,15,-4,9,3,-3,-28,39
1534208392405068,-85,-6,31,63,-16,5,14,-2
1534208392405068,47,17,-75,11,16,-1,-27,-64
1534208392421035,6,-14,72,-118,6,10,25,1
1534208392421035,-25,-4,-10,83,17,14,19,33
1534208392423017,9,-11,26,-128,-17,-5,-13,-45
1534208392423017,-9,-29,116,3,4,-2,3,1
1534208392444067,8,-7,-89,-65,-15,-4,2,-16
1534208392444067,26,7,100,64,-1,3,-2,-3
1534208392446017,-17,-20,6,-59,0,0,8,18
1534208392446017,18,8,33,70,14,6,-3,19
1534208392458063,-10,6,-92,-102,-25,0,15,-3
1534208392458063,5,11,-21,-15,14,18,7,-5
1534208392464983,10,5,70,8,18,-6,-13,4
1534208392464983,16,9,29,-54,-15,8,10,6
1534208392480983,15,7,4,55,-5,-4,12,7
1534208392480983,-25,6,10,-4,27,-4,-1,-15
1534208392483014,-11,3,-67,-17,-46,-2,-8,-1
1534208392483014,17,8,-14,-12,9,9,8,11
1534208392504062,-20,5,27,81,28,2,3,-5
1534208392504062,-25,2,-66,-97,-6,9,-5,-3
1534208392506013,3,6,-13,-1,46,5,-5,0
1534208392506013,9,8,-41,-88,-23,-32,-19,2
1534208392518063,-17,7,-9,-18,-5,6,12,-4
1534208392518063,2,0,79,114,-70,10,13,-2
1534208392525063,27,-2,-35,-46,-4,3,9,14
1534208392525063,-5,9,-20,31,8,0,4,-3
1534208392541035,-54,15,8,-39,-19,-39,-21,-39
1534208392541035,-49,-7,6,42,8,13,-5,-31
1534208392543016,44,2,-56,75,47,44,33,42
1534208392543016,84,-16,7,-30,-9,9,20,67
1534208392564014,23,8,45,66,-11,-1,7,19
1534208392564014,-22,5,-8,-84,-10,-7,-27,-24
1534208392566013,-55,6,-16,-41,-32,-39,-32,-50
1534208392566013,-80,8,2,6,40,21,-33,-55
1534208392578066,-8,-17,-10,-1,-83,-17,8,-1
1534208392578066,54,-10,10,4,39,41,22,37
1534208392585032,-32,33,36,5,-16,-20,-14,-25
1534208392585032,0,3,-14,24,0,-5,-32,-13
1534208392601034,91,-49,-22,-68,3,-12,58,96
1534208392601034,65,28,-19,36,-70,-42,5,50
1534208392603013,31,18,14,-67,60,23,-2,13
1534208392603013,-45,-4,15,45,-26,-55,-26,-43
1534208392624061,-51,61,50,34,47,52,8,-66
1534208392624061,-101,18,63,20,54,2,-30,-75
1534208392626017,-16,-18,15,97,-29,-19,-10,-16
1534208392626017,19,39,-104,-84,23,22,18,32
1534208392638065,39,-20,-1,53,14,29,25,45
1534208392638065,-20,14,76,76,3,-24,-28,-7
1534208392645011,-63,37,59,12,-15,51,51,-28
1534208392645011,51,-58,-23,-15,-10,-23,-14,17
1534208392660981,99,-2,-24,-23,-1,-27,4,72
1534208392660981,44,-2,-23,26,-24,-29,-12,6
1534208392663011,-64,39,-86,-80,-27,-26,-55,-39
1534208392663011,38,-36,126,127,88,69,37,15
1534208392684011,-22,20,-49,-128,-16,12,2,-19
1534208392684011,-54,25,17,60,-10,-32,-8,-12
1534208392686011,50,-20,-14,-21,-9,23,8,16
1534208392686011,-9,4,-11,-37,-1,9,2,18
1534208392696950,-75,13,-4,-22,-5,-32,-8,-40
1534208392696950,38,-2,19,43,-1,40,29,23
1534208392706979,-15,-12,-5,-37,-9,6,31,11
1534208392706979,66,-43,-45,110,-33,4,-8,21
1534208392720979,-68,23,-81,-43,-1,-40,-64,-57
1534208392720979,11,-14,-7,-59,2,-2,-22,-3
1534208392723010,44,-11,28,22,24,42,78,29
1534208392723010,-34,-4,-27,-24,-41,-41,-46,-15
1534208392744010,-75,0,-17,7,16,-2,40,-48
1534208392744010,87,-58,5,-24,-16,13,1,48
1534208392746011,17,83,-52,-47,13,-6,-24,13
1534208392746011,-2,33,86,74,41,4,17,8
1534208392756948,-55,17,79,94,47,16,-5,-30
1534208392756948,-46,-5,34,-14,18,-3,13,-10
1534208392767010,80,-59,8,20,-26,-10,3,34
1534208392767010,-52,23,79,77,-16,-2,13,-18
1534208392780978,6,33,-51,-30,9,23,-25,-2
1534208392780978,-13,-27,28,57,-16,-18,-1,-6
1534208392783010,2,-26,-17,-6,-29,-69,-81,2
1534208392783010,28,-12,49,-63,35,73,102,24
1534208392804009,13,23,43,11,-16,37,13,2
1534208392804009,-21,17,-4,-102,-3,-19,-17,-17
1534208392806009,-28,-23,11,-34,-9,-42,-95,-19
1534208392806009,9,8,16,34,-23,-48,-24,-37
1534208392818010,63,7,-78,-83,46,90,84,101
1534208392818010,-76,-3,-10,-26,19,69,84,-43
1534208392824978,35,7,24,78,-19,-48,-59,7
1534208392824978,-19,-16,-69,-81,-16,-31,-17,-24
1534208392841022,-17,-23,-20,32,-23,-36,-52,-10
1534208392841022,118,-82,-6,76,2,-79,-111,31
1534208392843010,4,84,24,85,25,-92,-64,-75
1534208392843010,-96,-32,-14,92,17,104,22,90
1534208392864010,111,-57,-7,-56,-23,-33,-77,-7
1534208392864010,-81,-11,-61,38,-33,-54,8,60
1534208392866009,13,-33,24,-39,34,99,81,-50
1534208392866009,28,38,-41,-90,3,-102,-49,-19
1534208392878061,5,-28,-9,90,-10,-25,-84,-14
1534208392878061,21,41,-1,16,5,12,75,-23
1534208392885059,-33,-58,-63,-89,-28,-24,19,19
1534208392885059,-111,26,-13,-51,-36,-36,-51,-58
1534208392900979,113,-42,-17,-106,58,26,42,37
1534208392900979,74,6,-24,-73,-58,-49,7,-29
1534208392903009,19,6,79,127,84,91,98,40
1534208392903009,14,94,-5,-114,-88,-70,-98,-66
1534208392924008,16,-12,113,127,-4,17,95,44
1534208392924008,63,-22,-23,-94,17,18,-128,-17
1534208392926008,-96,20,-72,-6,0,38,25,58
1534208392926008,76,-20,-62,-81,46,38,-21,54
1534208392936947,-66,13,122,127,-62,-34,-19,-64
1534208392936947,-61,6,-102,-118,-10,-4,2,46
1534208392947007,78,-24,81,88,-29,-95,-128,-108
1534208392947007,87,36,103,61,83,75,123,-35
1534208392960976,-128,-4,-115,-128,-40,-19,-73,90
1534208392960976,83,-36,105,76,46,13,19,49
1534208392963009,-68,23,70,-114,-12,-86,-38,25
1534208392963009,-13,47,-11,109,-69,-6,79,41
1534208392984007,-74,-36,101,-85,18,23,-39,-71
1534208392984007,-81,-2,12,-101,-9,4,-24,-35
1534208392986007,30,-2,38,58,50,7,-12,32
1534208392986007,-32,-41,-44,-45,-5,-24,8,32
1534208392996946,38,22,-37,93,15,40,62,-14
1534208392996946,52,67,20,-29,-13,-37,-4,-23
1534208393007009,-43,-31,31,-12,-21,22,41,-16
1534208393007009,8,-22,-55,103,29,5,-9,-3
1534208393021021,39,14,-28,-118,-21,10,12,0
1534208393021021,-23,-1,60,110,45,14,6,-6
1534208393023008,25,-15,-29,-92,-34,15,45,6
1534208393023008,1,-17,-28,-98,10,-16,-58,-23
1534208393044059,27,7,-62,112,-38,-38,-14,-9
1534208393044059,-94,11,35,-35,9,-45,-75,-13
1534208393046009,-92,60,-20,74,20,74,67,-12
1534208393046009,71,-34,86,-89,-31,-36,-19,-1
1534208393056994,-4,1,19,-91,8,-4,-7,-10
1534208393056994,21,6,-60,-79,-42,9,-14,5
1534208393067007,55,-25,29,78,22,9,-14,61
1534208393067007,-55,17,53,95,1,-8,-20,-23
1534208393080974,-12,-18,-16,-40,14,12,53,11
1534208393080974,-15,15,15,96,12,13,21,-16
1534208393083006,-2,-13,-90,-128,-67,-20,-28,5
1534208393083006,-3,-10,-2,97,24,38,28,-5
1534208393104055,14,-4,112,86,14,-28,-37,1
1534208393104055,-30,13,-128,-77,11,24,23,-3
1534208393106008,15,-11,-45,-34,-24,-24,-21,19
1534208393106008,23,-11,101,-15,-14,13,6,13
1534208393116993,10,13,-59,34,6,-19,-7,-15
1534208393116993,-68,4,-38,-125,-20,0,11,-6
1534208393127010,88,-4,9,78,48,10,-15,-2
1534208393127010,-34,-22,-6,23,15,-3,-5,15
1534208393141027,-38,-12,-40,-117,-21,-11,-19,-44
1534208393141027,15,7,38,98,16,21,30,-7
1534208393143006,10,-13,-30,-62,-9,-12,-16,-4
1534208393143006,-18,-4,-86,15,4,-2,-16,-8
1534208393164008,21,2,15,30,-12,-16,-9,9
1534208393164008,31,9,4,-34,31,28,6,9
1534208393166005,-18,0,3,-68,-34,-17,-9,-18
1534208393166005,8,7,-18,86,21,-8,-10,-1
1534208393176992,3,2,28,30,-6,-4,-9,0
1534208393176992,15,6,-12,-29,7,10,6,-2
1534208393187004,-5,2,12,-54,3,-3,2,8
1534208393187004,-7,-17,52,-55,-24,-11,-6,-13
1534208393200973,13,-1,-10,21,-4,-12,-5,8
1534208393200973,23,-8,30,47,-6,8,12,10
1534208393203004,-1,4,18,24,52,24,10,-3
1534208393203004,-7,0,-28,-97,-5,9,4,-5
1534208393224005,-25,-3,-12,47,43,11,-9,-26
1534208393224005,39,-13,44,-9,4,17,23,27
1534208393226004,47,11,2,103,17,19,26,49
1534208393226004,28,-1,-10,-69,-20,-18,-13,16
1534208393236992,-18,1,21,-29,22,21,-14,-12
1534208393236992,-38,11,-8,-28,-17,-2,-18,-34
1534208393247003,-19,-11,-13,0,-10,-1,-26,-25
1534208393247003,15,-3,-28,-15,-4,20,5,16
1534208393261025,15,15,4,-24,-20,-33,-24,9
1534208393261025,-16,3,22,66,-5,4,8,-7
1534208393263003,-38,14,9,-40,-24,-15,-23,-44
1534208393263003,-81,12,-30,-17,19,-11,-11,-54
1534208393284052,53,-7,-15,-77,-54,-22,25,50
1534208393284052,106,-16,-23,39,-12,27,45,97
1534208393286003,48,10,17,-1,2,-26,4,32
1534208393286003,-5,0,-11,-9,-15,-9,-8,-23
1534208393296941,-104,20,28,-7,36,-15,-109,-124
1534208393296941,-77,-12,16,-2,-43,-11,2,-128
1534208393313024,61,-7,-13,98,7,39,105,92
1534208393313024,108,19,8,-43,-56,10,23,53
1534208393320972,51,6,-35,-15,-40,-31,3,-35
1534208393320972,-74,6,-6,-26,35,-10,-65,-97
1534208393330001,-128,46,29,-54,-16,-36,-80,-128
1534208393330001,-1,-74,11,104,106,48,45,37
1534208393331003,-128,46,29,-54,-16,-36,-80,-128
1534208393331003,-1,-74,11,104,106,48,45,37
1534208393333002,10,-13,-30,-62,-9,-12,-16,-4
1534208393333002,-18,-4,-86,15,4,-2,-16,-8
1534208393335971,21,2,15,30,-12,-16,-9,9
1534208393335971,31,9,4,-34,31,28,6,9
1534208393344002,111,-69,-28,74,-26,32,67,127
1534208393344002,74,70,-21,-105,-7,-8,-5,41
1534208393346003,-16,-8,17,62,-11,-10,-3,2
1534208393346003,-108,54,49,-49,-20,-26,-43,-47
1534208393365970,-89,17,37,48,36,-18,-4,-30
1534208393365970,95,-33,-46,39,24,15,27,60
1534208393368002,-15,-65,-10,12,12,15,-12,6
1534208393368002,15,25,64,43,6,-25,-26,-18
1534208393380974,-81,6,14,100,14,21,7,-34
1534208393380974,49,-9,-16,-73,69,25,20,46
1534208393386983,-45,63,38,10,-57,-31,-10,-14
1534208393386983,93,-79,-55,-53,17,4,-5,36
1534208393404048,14,4,15,-28,-23,14,4,-10
1534208393404048,-19,2,32,64,50,-12,7,18
1534208393406002,2,-49,15,-59,-6,14,-5,-16
1534208393406002,-1,74,-63,-57,0,-15,-8,-1
1534208393425991,-39,45,18,-28,2,22,1,-3
1534208393425991,32,15,-57,-22,-17,-9,-12,-12
1534208393428001,65,63,10,-33,8,4,35,49
1534208393428001,-11,61,5,24,-31,5,-6,-17
1534208393441023,-18,40,33,20,12,-14,5,14
1534208393441023,-49,88,-39,-55,-31,-27,-23,-34
1534208393446939,33,38,50,77,-26,-2,-9,-5
1534208393446939,27,58,-75,-56,54,23,23,10
1534208393464004,-28,87,-35,-61,9,-7,-18,-19
1534208393464004,-53,44,29,4,-27,-12,-16,-19
1534208393466002,20,56,4,12,-8,1,17,11
1534208393466002,0,88,56,75,-51,15,9,3
1534208393486018,48,26,-26,-124,-3,-60,-53,-3
1534208393486018,-45,15,-34,-14,-6,55,52,3
1534208393488002,2,26,-71,-72,19,16,5,-13
1534208393488002,-42,-3,34,8,-18,-13,4,-15
1534208393501053,8,-21,62,74,9,42,28,10
1534208393501053,4,-13,18,32,-30,-36,-27,6
1534208393506988,46,12,-35,-70,4,-27,1,32
1534208393506988,-14,-37,2,31,-18,-46,-43,-20
1534208393523987,-21,-44,-55,-42,-28,-54,-71,-37
1534208393523987,31,-15,35,-1,21,-26,55,31
1534208393526000,-46,-53,33,60,27,92,59,16
1534208393526000,-19,-40,-5,-17,-15,-44,8,-6
1534208393546021,12,-37,18,49,5,-14,-40,-2
1534208393546021,-12,-68,-10,-6,-17,-21,-44,-7
1534208393547971,2,-57,-58,-75,-10,-19,-20,-9
1534208393547971,8,-70,33,84,1,3,-5,-4
1534208393561021,10,-20,1,-46,16,-2,-30,0
1534208393561021,-55,-61,55,53,0,45,17,-7
1534208393566987,44,-7,-36,-38,-1,-15,-51,-22
1534208393566987,8,-28,24,41,6,103,69,13
1534208393584048,-44,-61,-60,-88,-47,-64,-32,8
1534208393584048,77,-72,60,74,16,-2,-27,-11
1534208393585999,-118,7,18,34,-18,-90,-37,-46
1534208393585999,112,-13,-61,-109,9,112,112,46
1534208393605987,-54,-43,-34,93,26,2,-31,36
1534208393605987,-109,22,20,-105,-8,-77,-52,-24
1534208393608006,102,-3,-44,-44,-28,41,57,-25
1534208393608006,-121,-5,115,76,56,-84,-56,34
1534208393621051,89,-22,-82,-128,-35,-65,-42,-10
1534208393621051,-128,47,81,127,57,10,63,-76
1534208393626986,52,-16,-38,-112,-26,55,-48,-3
1534208393626986,51,41,4,62,-29,21,-24,61
1534208393644051,-45,-1,86,-21,47,41,-5,39
1534208393644051,88,-61,-37,-82,-17,16,28,-8
1534208393646006,-43,4,-40,113,-25,-32,-6,-13
1534208393646006,-32,-32,44,-128,-1,-79,-108,-61
1534208393665966,90,8,27,127,-27,13,68,107
1534208393665966,22,12,-29,57,-35,42,27,-71
1534208393667998,18,-51,20,-58,52,-71,-71,-40
1534208393667998,32,69,-44,94,-24,23,-46,-6
1534208393679996,35,-37,93,51,32,111,127,-1
1534208393679996,82,-17,-19,-58,10,-5,-67,73
1534208393688967,50,54,127,103,17,-4,35,-67
1534208393688967,-76,-35,-100,-70,-38,-92,-83,-62
1534208393703998,127,51,18,93,29,20,3,-20
1534208393703998,-88,-26,21,-53,-35,8,-70,40
1534208393705997,-128,-31,-107,-125,5,-64,-49,58
1534208393705997,69,-2,127,60,1,35,45,-18
1534208393725966,-56,-23,-125,-128,-15,12,35,-18
1534208393725966,29,-11,90,119,8,-50,-32,28
1534208393727997,-39,-22,-30,92,8,1,-14,25
1534208393727997,-55,-29,-9,-66,-2,5,50,-6
1534208393739996,-25,7,53,42,-4,16,34,10
1534208393739996,-22,13,-94,-65,-2,-12,-43,-23
1534208393748968,10,1,-13,-99,0,20,36,23
1534208393748968,-18,-22,-32,-44,-27,-39,-22,-14
1534208393763969,49,21,61,68,34,22,7,-19
1534208393763969,-11,25,-12,-71,-7,8,27,24
1534208393765997,4,1,31,-35,11,13,16,13
1534208393765997,2,-9,4,33,-9,5,-13,10
1534208393786008,-4,-15,17,-69,18,-40,-51,29
1534208393786008,-46,35,-61,-52,-2,21,38,-7
1534208393787996,-15,11,1,-47,-2,29,13,10
1534208393787996,-35,-11,-3,-74,1,-13,-15,-20
1534208393800010,-31,9,-6,-4,-8,-8,-6,-9
1534208393800010,54,1,43,61,1,20,31,21
1534208393808965,36,-10,7,-33,1,-10,-18,42
1534208393808965,-11,-23,-6,81,5,-8,-9,28
1534208393824045,-37,42,78,31,9,50,29,-38
1534208393824045,7,-20,-105,-60,-8,-25,-12,1
1534208393825998,-15,3,25,104,-14,-11,-18,-16
1534208393825998,1,0,-18,-66,7,4,19,5
1534208393846016,-2,2,-55,-29,-12,-7,13,2
1534208393846016,1,8,44,17,-4,-23,-20,-11
1534208393847967,-13,-3,-1,-19,-43,4,-6,6
1534208393847967,4,-5,88,49,26,14,17,-5
1534208393861048,2,13,-82,-76,-15,-22,-15,-13
1534208393861048,-6,4,57,27,4,-8,-12,-2
1534208393866983,1,-10,-12,-30,7,7,5,1
1534208393866983,0,-6,-25,-94,-7,0,-2,-6
1534208393884044,-15,-13,1,42,7,2,-6,-13
1534208393884044,-11,-4,-47,-79,-47,-7,-3,-3
1534208393885996,-3,-21,49,81,85,25,9,-2
1534208393885996,20,13,-48,74,48,29,20,8
1534208393906017,0,-1,4,-94,-21,-5,-1,7
1534208393906017,24,12,-25,-25,-1,6,19,17
1534208393907995,-29,7,-2,-35,-10,-10,-16,-26
1534208393907995,-44,-4,-9,-46,-53,-38,-26,-41
1534208393919968,3,-12,50,111,57,19,30,4
1534208393919968,84,-2,43,71,35,23,24,56
1534208393928963,40,-1,-60,-95,-25,4,8,33
1534208393928963,-7,5,-3,30,22,0,-3,-5
1534208393944043,-107,6,8,-51,-35,-29,-64,-90
1534208393944043,-80,7,18,-18,-15,8,-36,-62
1534208393945995,72,-23,-5,127,-25,28,48,73
1534208393945995,106,-11,-6,-55,23,27,33,93
1534208393966015,-4,1,-10,-76,-37,-11,-14,5
1534208393966015,-50,-1,34,47,31,-2,-20,-44
1534208393967994,-104,15,15,-27,-17,-30,-52,-92
1534208393967994,-71,25,-10,-16,-8,-35,-32,-61
1534208393980015,63,-32,-9,94,23,22,71,86
1534208393980015,101,26,-29,-8,28,19,38,76
1534208393988993,41,-12,-3,-27,-29,-16,7,26
1534208393988993,-10,22,36,28,0,-22,-21,-25
1534208394004015,-41,-10,-15,-42,-13,-30,-49,-62
1534208394004015,-65,7,10,37,7,2,12,-74
1534208394005994,-52,29,-21,-10,64,39,14,11
1534208394005994,55,-60,4,42,-63,11,52,81
1534208394025982,17,59,27,-115,-25,-30,-29,1
1534208394025982,-33,-4,59,103,-22,-14,-24,-31
1534208394027995,-4,-17,-2,-92,49,26,15,2
1534208394027995,38,17,-17,32,12,-18,-31,-33
1534208394040046,0,-45,-59,-14,-2,8,10,3
1534208394040046,17,42,92,63,50,50,8,22
1534208394048960,-121,-3,30,21,-67,-85,-30,-52
1534208394048960,21,-80,-26,-57,30,27,13,3
1534208394063961,65,59,22,8,-27,-5,2,31
1534208394063961,-46,-19,-66,-10,24,-18,-35,-29
1534208394065992,14,57,26,14,2,63,43,-5
1534208394065992,-23,-18,-39,-120,-20,-22,-2,12
1534208394085962,-3,-27,69,116,-1,4,13,12
1534208394085962,-16,-27,34,-53,-22,-37,-29,-11
1534208394087992,28,31,4,65,31,2,-8,-11
1534208394087992,24,-60,-47,-8,-56,-27,-16,9
1534208394099991,5,13,-32,6,30,24,38,20
1534208394099991,16,0,-90,-81,6,50,42,24
1534208394108993,50,-57,83,95,35,52,-7,6
1534208394108993,-39,61,80,55,-7,3,-1,-38
1534208394124041,-65,31,-6,-31,5,-39,-32,-27
1534208394124041,27,-59,-81,-56,-28,1,-9,21
1534208394125992,8,33,-16,22,-18,-38,-5,13
1534208394125992,-39,-50,-9,-19,57,56,56,-16
1534208394146006,-4,8,55,48,-37,12,16,4
1534208394146006,61,-69,-54,-29,47,27,37,26
1534208394147963,28,32,44,34,-10,-33,-70,-6
1534208394147963,-55,63,60,90,-5,24,66,6
1534208394160034,6,-37,-17,-3,14,-7,-50,-23
1534208394160034,-26,63,-62,-115,13,78,75,11
1534208394168959,-48,-90,38,44,1,12,-33,-7
1534208394168959,63,34,-18,-93,0,-28,-36,30
1534208394184040,109,-69,-48,85,-51,-36,-21,21
1534208394184040,-2,68,7,-22,-17,-80,-94,-9
1534208394185991,-7,-16,-39,-81,-9,22,52,-2
1534208394185991,-23,89,104,106,45,60,-10,-6
1534208394206012,-41,1,-3,-35,22,-16,84,-15
1534208394206012,-3,-45,5,5,-36,98,45,36
1534208394207991,16,28,-27,-45,-17,-67,-62,-12
1534208394207991,-7,-36,-93,-52,-8,-37,-38,-18
1534208394220039,-13,4,12,-25,3,1,-5,-3
1534208394220039,-26,-36,30,119,-16,-101,-70,-27
1534208394228990,53,17,28,-71,26,87,85,46
1534208394228990,53,14,-27,106,-7,13,-34,-18
1534208394244043,-96,21,-39,-47,10,-2,-49,-9
1534208394244043,8,24,80,96,-7,-5,-7,-4
1534208394245990,29,-8,-90,-97,-41,-78,-63,-14
1534208394245990,-44,-13,-66,-80,-3,-12,14,11
1534208394265978,15,33,0,15,24,-30,-31,-1
1534208394265978,-17,-7,65,-3,-5,-19,12,-23
1534208394267990,102,-16,20,87,4,-33,-9,35
1534208394267990,-85,-4,-90,-128,-43,-54,-69,-52
1534208394288959,82,20,90,69,21,15,-16,-7
1534208394288959,84,-1,-93,-32,-39,-128,-74,14
1534208394290990,-34,-68,99,2,40,105,74,36
1534208394290990,-28,18,-18,-68,-7,-37,37,-6
1534208394304008,80,-33,5,95,-14,8,-11,7
1534208394304008,28,-1,78,-101,43,20,-45,7
1534208394310042,-36,-31,-34,66,-53,-65,26,-81
1534208394310042,-90,40,9,-26,8,51,47,35
1534208394325978,12,3,122,-44,7,106,-12,63
1534208394325978,39,-48,-68,41,-10,-65,-26,-3
1534208394327989,8,22,75,54,15,20,9,27
1534208394327989,118,75,115,9,-19,-59,-64,-100
1534208394348961,-117,-24,-35,-69,2,-28,93,-1
1534208394348961,-85,-48,-38,120,-32,48,72,32
1534208394350989,-97,57,-88,-28,52,-35,-108,83
1534208394350989,126,-28,43,18,65,82,100,46
1534208394363041,15,2,14,-128,-17,-49,-89,34
1534208394363041,67,-28,50,60,-14,-69,-91,-90
1534208394370041,44,-44,-29,24,-22,-28,45,-15
1534208394370041,55,29,-9,-47,14,1,27,-18
1534208394386006,3,25,-66,9,6,-5,-32,-3
1534208394386006,-12,6,82,22,31,49,30,21
1534208394387988,-20,13,40,-4,-27,-82,-105,-52
1534208394387988,-45,-1,-51,-38,-18,21,15,19
1534208394409009,69,-70,60,11,64,57,25,43
1534208394409009,-94,80,-72,52,-34,-42,-58,-50
1534208394410988,36,20,53,-67,-23,25,80,18
1534208394410988,-66,-3,-33,127,2,6,-37,-7
1534208394423037,-9,-16,-19,-72,-5,16,41,-11
1534208394423037,9,49,75,-49,9,14,-11,25
1534208394429992,-4,-3,-101,-43,0,17,-17,-29
1534208394429992,-23,-34,96,17,14,-25,-31,13
1534208394446000,-17,18,-26,72,-25,15,65,-16
1534208394446000,8,25,-6,-128,15,30,36,23
1534208394447959,-16,9,-78,-95,-37,-13,3,-16
1534208394447959,-22,-8,72,65,24,-4,-20,9
1534208394468986,42,11,-25,-28,3,-40,-24,-4
1534208394468986,50,13,-38,-6,-5,27,25,-29
1534208394470988,68,-25,-27,-66,20,6,-9,-10
1534208394470988,-87,25,-37,70,-7,-21,-60,1
1534208394482987,-79,7,120,65,-2,-26,13,-57
1534208394482987,13,9,77,-35,19,30,38,6
1534208394490036,31,21,-70,-90,-54,27,14,3
1534208394490036,10,-8,88,101,15,-23,-27,29
1534208394505974,-9,20,-121,-128,-17,-18,-40,-24
1534208394505974,-83,-29,22,-82,-31,30,72,-12
1534208394507988,-60,30,-1,127,59,-19,-45,-23
1534208394507988,11,-24,21,13,-19,-7,-10,24
1534208394528955,27,4,-36,-62,-11,-19,-29,-6
1534208394528955,-19,14,25,43,-6,-7,4,21
1534208394530958,49,-2,68,-19,9,17,9,17
1534208394530958,-5,-22,-19,-53,-3,0,6,-19
1534208394542987,127,-5,-8,121,-8,-4,-2,39
1534208394542987,-19,15,58,-21,26,13,0,-9
1534208394549954,-26,-14,5,-73,-8,-16,-26,-5
1534208394549954,42,0,-33,76,5,-2,5,9
1534208394565974,-31,-8,-57,-87,-21,7,17,-2
1534208394565974,12,-10,-11,-57,-10,-2,10,31
1534208394567986,-37,20,77,112,25,3,-4,-4
1534208394567986,26,-9,-29,-111,-10,4,0,-5
1534208394589035,-43,18,-36,-40,17,7,7,-13
1534208394589035,3,-2,-45,-56,-30,-23,-20,6
1534208394590985,-4,9,3,45,-3,-4,2,-10
1534208394590985,18,1,-66,-39,-9,0,3,-3
1534208394603038,-21,0,-19,-34,-3,6,9,3
1534208394603038,10,7,30,80,15,-20,-16,7
1534208394610038,4,-1,35,41,-11,4,9,6
1534208394610038,-15,-16,-33,-123,-4,-8,-4,-8
1534208394625976,-45,3,50,127,-13,-12,-19,-24
1534208394625976,11,-1,-17,74,24,33,15,-2
1534208394627987,-13,-5,8,-57,19,11,11,-4
1534208394627987,1,-8,-27,-28,-20,-19,-7,-6
1534208394648952,12,-4,-4,-98,-5,5,2,15
1534208394648952,20,-4,-32,49,9,2,15,9
1534208394650985,26,8,32,44,-4,21,31,35
1534208394650985,-47,1,14,-67,-12,-26,-10,-53
1534208394661973,-100,-18,5,13,-55,-50,-62,-67
1534208394661973,30,-2,9,74,7,57,47,-38
1534208394671985,85,-23,-3,-2,32,48,80,96
1534208394671985,87,-3,-17,-74,-21,18,-10,23
1534208394686002,-48,16,12,19,10,-12,-36,-79
1534208394686002,-128,9,-6,-36,-12,-45,-84,-122
1534208394687985,-119,39,13,39,-1,-27,-68,-124
1534208394687985,49,-48,-14,49,26,2,63,98
1534208394708983,78,17,20,27,21,14,34,84
1534208394708983,56,3,-57,-89,-16,-53,-21,30
1534208394710983,-14,31,20,9,-13,-22,-16,-14
1534208394710983,-76,-21,-21,53,16,-9,-55,-56
1534208394721922,-3,24,-63,-80,47,69,69,38
1534208394721922,109,-27,52,60,1,-6,26,74
1534208394731955,-38,53,1,8,-41,-6,-8,-8
1534208394731955,-53,4,-57,-31,5,-21,-21,-39
1534208394745952,14,-1,14,69,24,43,22,-2
1534208394745952,22,33,8,-37,-14,-7,-11,13
1534208394747951,78,-39,32,75,41,-11,9,39
1534208394747951,-40,30,55,63,-28,-24,-27,-37
1534208394768951,1,7,-39,30,45,36,44,40
1534208394768951,-26,42,67,-61,7,-10,-3,-12
1534208394774982,60,-31,-50,-96,4,5,-6,23
1534208394774982,-8,43,33,55,-33,-10,-25,-9
1534208394781921,-31,-21,36,40,39,19,3,-38
1534208394781921,-45,8,5,2,9,-17,-12,-1
1534208394791984,-52,-45,-52,59,-68,-16,-3,-33
1534208394791984,20,4,69,-22,-10,16,7,6
1534208394805951,50,-32,-67,-5,-36,-64,-62,-12
1534208394805951,-31,48,17,73,-14,-14,-14,-5
1534208394807983,23,-86,-53,-88,34,75,82,46
1534208394807983,20,5,42,92,16,14,-8,18
1534208394828954,-59,-54,127,23,22,-34,30,-4
1534208394828954,-22,-9,-78,-101,-57,-63,-60,-15
1534208394830983,8,8,92,-60,10,-63,-116,-40
1534208394830983,-33,22,-12,9,17,119,127,16
1534208394841921,35,-8,-82,-88,-48,-38,-71,4
1534208394841921,-16,-15,95,86,26,20,16,3
1534208394851983,-23,55,-40,-45,-46,-26,-19,-15
1534208394851983,-8,-5,-96,-90,4,-34,-23,-7
1534208394865997,-4,34,66,-44,28,1,-2,-21
1534208394865997,8,-41,43,81,15,23,43,31
1534208394867982,2,-3,-31,-42,-35,-33,-9,-6
1534208394867982,31,17,74,-85,-14,-12,-34,0
1534208394888993,-9,62,-29,17,-16,-10,27,5
1534208394888993,16,-37,32,3,23,-8,-34,-4
1534208394890982,10,4,43,-23,19,67,64,15
1534208394890982,0,-15,60,127,7,-18,-82,-11
1534208394901963,2,27,-20,27,-26,-16,48,3
1534208394901963,-38,54,-33,-9,20,-21,-68,-14
1534208394911981,9,22,-31,27,5,57,98,5
1534208394911981,21,-41,-16,-54,-24,-40,-5,16
1534208394925949,22,8,40,13,-15,14,-32,2
1534208394925949,0,-17,-102,-87,13,23,29,3
1534208394927981,-44,31,58,127,29,-39,-62,-31
1534208394927981,7,32,46,11,-20,-14,7,-1
1534208394948980,-7,-1,-9,-41,5,-3,-24,3
1534208394948980,38,-29,-8,-41,-12,56,68,16
1534208394950953,-9,5,-55,-63,-3,-2,0,6
1534208394950953,17,-17,-36,-48,0,-59,-71,-11
1534208394961919,-38,-23,40,19,-1,-13,21,-6
1534208394961919,-13,42,-31,53,6,-17,8,1
1534208394971980,-13,-11,35,-23,8,-40,-60,15
1534208394971980,-11,16,-39,-25,-8,-32,-2,-17
1534208394985920,-19,-55,-14,-76,-26,37,12,-75
1534208394985920,1,52,54,49,57,12,26,19
1534208394987980,92,-61,-37,-81,-12,43,2,90
1534208394987980,-48,80,33,122,-24,-32,-53,-70
1534208395008995,-94,22,-58,-122,9,32,-37,-68
1534208395008995,83,-39,30,104,-3,22,21,-7
1534208395010980,101,-56,127,-28,-18,-111,-119,57
1534208395010980,73,-19,-128,-96,-8,-57,60,-17
1534208395021961,45,37,102,127,53,104,-2,121
1534208395021961,-122,83,-47,-128,-42,-34,-49,5
1534208395031951,-13,-6,-67,98,-45,-112,-102,-101
1534208395031951,127,13,114,10,62,22,106,76
1534208395046032,-67,-18,-94,16,-58,-38,-50,93
1534208395046032,-43,-13,65,-86,39,-24,43,-61
1534208395051967,-48,57,-92,69,-19,-8,17,35
1534208395051967,9,-59,-38,94,35,48,-27,-27
1534208395069031,9,-39,-5,-62,4,5,-9,0
1534208395069031,30,-72,-111,-116,-61,-14,-22,67
1534208395070979,21,40,88,62,35,34,60,-87
1534208395070979,-128,-38,-24,-58,50,-50,-54,-28
1534208395081918,57,27,-1,-39,-89,-73,-19,119
1534208395081918,32,-78,93,39,93,77,-24,86
1534208395091979,3,-19,-46,19,-31,-31,22,-62
1534208395091979,43,-28,-77,38,31,-14,-56,20
1534208395106003,56,-20,116,35,-30,-22,-23,-115
1534208395106003,1,0,-38,-67,-44,-87,-112,7
1534208395107985,-10,5,66,-78,68,127,119,61
1534208395107985,35,5,126,-70,-46,4,-89,-10
1534208395128997,17,7,-19,71,17,-21,7,-21
1534208395128997,-58,3,-78,-68,-21,42,16,-46
1534208395130979,14,-11,107,-51,2,-9,-35,-3
1534208395130979,-1,37,-40,31,-5,11,17,-29
1534208395141966,16,-23,82,24,14,6,17,-20
1534208395141966,29,34,31,-34,-32,-14,14,-6
1534208395151979,-66,-6,-40,58,7,2,5,-16
1534208395151979,-61,7,-74,36,5,38,57,33
1534208395165966,16,2,-5,-30,-2,-26,-6,0
1534208395165966,83,-1,62,127,28,-11,-22,-26
1534208395167978,-57,23,-46,-125,-27,-48,-44,-5
1534208395167978,2,-16,15,82,9,28,10,20
1534208395189027,9,18,-1,1,27,-4,18,-15
1534208395189027,21,-26,-38,15,-21,-16,7,-11
1534208395190977,44,26,28,6,11,16,1,0
1534208395190977,-16,1,102,67,6,29,5,7
1534208395201965,-15,-5,-95,-128,-10,-25,-26,-22
1534208395201965,-8,5,22,64,-10,8,17,-2
1534208395211977,-22,9,85,38,24,4,-15,-2
1534208395211977,19,2,-35,-107,-24,4,17,9
1534208395226027,6,-12,1,-52,5,-4,13,-3
1534208395226027,10,-3,-29,-100,10,10,3,-1
1534208395231915,-26,26,-67,123,17,17,6,-7
1534208395231915,-13,-24,-35,-77,-33,-18,2,3
1534208395248945,-7,-6,86,6,-6,-8,-10,-5
1534208395248945,8,7,-38,10,9,1,2,5
1534208395250977,-16,-5,-47,-128,-27,-9,-10,-8
1534208395250977,5,3,-13,35,1,7,11,9
1534208395261964,3,-6,1,56,40,11,-2,2
1534208395261964,2,7,-50,-41,-31,-11,-2,-7
1534208395271977,-17,-9,-7,2,23,2,3,-7
1534208395271977,-4,-5,0,-60,-12,4,7,4
1534208395285965,25,7,7,65,-5,1,4,11
1534208395285965,-1,-8,-2,-33,-6,-4,3,2
1534208395287977,-2,1,-19,50,-1,12,3,2
1534208395287977,-13,4,18,-24,-5,-6,-6,-2
1534208395309029,-2,8,-1,20,23,-4,2,-6
1534208395309029,-11,-7,-12,-18,-22,11,21,-1
1534208395310976,-7,10,5,17,12,-1,0,-3
1534208395310976,13,15,29,-5,0,11,19,3
1534208395330915,1,7,-49,-16,-2,-3,3,-2
1534208395330915,-6,-1,30,50,1,-14,-11,-7
1534208395332976,-11,-4,-42,-46,-12,-15,-19,-9
1534208395332976,2,-7,10,-4,2,7,0,-1
1534208395345997,-3,-6,-24,-12,24,6,3,3
1534208395345997,-1,0,11,43,19,16,1,8
1534208395347948,-4,5,13,76,86,19,-2,0
1534208395347948,-19,3,9,-20,-36,-1,-13,-16
1534208395368944,15,2,1,-8,-15,-4,-8,6
1534208395368944,45,-7,29,-11,-5,5,26,36
1534208395370977,5,-6,-12,-44,4,-16,-44,-18
1534208395370977,-17,3,-12,-19,6,-5,1,-7
1534208395390912,-25,-4,60,71,-18,10,10,15
1534208395390912,13,-3,1,67,37,-4,4,10
1534208395392943,10,-7,-22,-115,-40,-5,7,-1
1534208395392943,-10,3,6,11,-9,-29,-20,-17
1534208395405990,-21,11,7,2,13,5,-11,-40
1534208395405990,-11,-4,-7,-9,-37,-31,-5,-1
1534208395407975,-47,-2,51,56,15,15,15,20
1534208395407975,-1,-9,-32,-31,15,8,13,-23
1534208395429017,-21,5,1,48,-14,-6,-2,-4
1534208395429017,58,-34,-13,-5,24,25,15,24
1534208395430975,109,-18,-27,-18,-35,-17,19,30
1534208395430975,17,1,-16,-21,-48,-16,-4,47
1534208395450994,-65,38,-47,-91,12,-8,-13,-55
1534208395450994,26,-6,40,100,45,31,-4,-9
1534208395452975,26,17,-24,-123,-9,18,41,36
1534208395452975,-41,21,93,98,-4,-11,-15,-31
1534208395465994,-14,31,22,11,-18,-39,-37,-29
1534208395465994,-39,23,-7,-6,44,10,7,-22
1534208395471962,23,-11,-18,114,-79,17,10,21
1534208395471962,93,-2,-51,-106,8,0,25,44
1534208395488992,-37,26,47,57,9,8,-8,-13
1534208395488992,-6,84,-14,-65,-28,-39,-15,1
1534208395490974,-40,-22,44,111,15,-7,-13,-25
1534208395490974,-32,-41,-5,36,-36,43,18,22
1534208395510962,28,53,-4,-53,19,4,-6,-7
1534208395510962,-23,55,76,72,9,39,5,-1
1534208395512942,49,-41,-32,-67,-91,-69,4,35
1534208395512942,-43,56,-44,-74,21,9,-1,-18
1534208395526023,-3,31,54,100,21,0,8,15
1534208395526023,46,-62,25,90,-58,-21,-31,-28
1534208395531911,-38,16,-3,3,80,14,0,-12
1534208395531911,-71,0,17,-45,-10,-11,-17,-25
1534208395548945,112,-48,-49,-21,-14,12,18,37
1534208395548945,-34,-101,-69,-50,-6,3,18,0
1534208395550973,17,47,27,70,10,4,-22,-10
1534208395550973,-21,-31,-51,-27,-22,-46,-5,15
1534208395570961,-94,-59,5,8,9,-9,-36,-32
1534208395570961,50,-33,58,32,28,60,70,60
1534208395572973,12,50,-46,-65,-23,-40,-7,-7
1534208395572973,-1,27,-35,-35,35,-9,-6,-5
1534208395584990,3,18,19,0,9,3,-10,4
1534208395584990,13,11,-38,-73,-69,-8,-28,-23
1534208395593972,-45,3,81,-29,17,21,-22,-13
1534208395593972,23,-38,28,67,30,26,35,10
1534208395608993,-2,-10,-5,-52,-27,-40,-15,-10
1534208395608993,-8,39,-43,-64,-5,-21,-24,-15
1534208395610972,-5,1,-27,6,9,29,-4,-5
1534208395610972,33,35,60,127,3,-7,-1,3
1534208395630911,17,-32,-20,-80,-5,-21,-19,0
1534208395630911,-6,-16,32,-10,12,19,-39,7
1534208395632941,-62,-4,-50,-47,10,67,59,-21
1534208395632941,68,1,4,-3,11,-10,45,-5
1534208395646024,40,-36,-13,51,-16,-52,-58,54
1534208395646024,-49,58,-19,-61,18,20,33,-57
1534208395651960,4,-24,42,3,13,76,81,20
1534208395651960,15,-37,-57,-45,-33,-49,-47,-26
1534208395668993,56,-30,-7,100,-5,-36,-4,51
1534208395668993,-1,41,-11,-94,-11,-65,-86,-35
1534208395670971,-73,-46,-15,-13,14,25,38,-6
1534208395670971,57,-23,28,-15,7,-71,-92,40
1534208395690989,-10,15,41,-27,7,112,119,-61
1534208395690989,-111,-37,-113,18,-26,-2,40,-4
1534208395692971,-65,46,31,-82,-21,-113,-97,-80
1534208395692971,-49,50,66,89,16,127,101,-3
1534208395704992,2,32,-51,42,22,74,-83,98
1534208395704992,-22,-57,-33,-53,-40,-79,-56,-12
1534208395713971,23,-21,51,55,33,61,47,-113
1534208395713971,101,2,84,86,-24,-76,-97,46
1534208395728989,-79,99,55,107,32,-77,-31,76
1534208395728989,3,-17,-63,-109,-2,-44,0,-47
1534208395730970,-81,16,7,127,-57,-113,-128,14
1534208395730970,82,-65,98,-128,3,-41,-103,-17
1534208395750958,90,55,-48,94,41,127,127,19
1534208395750958,-79,-12,12,-46,-73,-128,-128,-67
1534208395752939,37,2,-123,41,88,78,30,37
1534208395752939,-67,13,83,100,16,-9,79,-5
1534208395764970,-20,-60,-6,-95,-24,-16,-72,-22
1534208395764970,86,72,4,64,-11,42,69,63
1534208395773972,9,-12,110,-85,6,-27,10,-9
1534208395773972,-106,34,-41,-69,-10,0,-31,3
1534208395789019,-13,-16,-128,26,3,-9,74,-66
1534208395789019,2,-37,44,-72,29,10,-50,-15
1534208395790970,-88,53,19,57,-34,19,67,40
1534208395790970,16,-5,-28,37,10,32,43,13
1534208395810958,70,-65,120,-30,-29,-72,-82,-96
1534208395810958,-11,69,-57,127,23,59,65,38
1534208395812969,35,-13,-47,9,-18,-41,-63,17
1534208395812969,-79,-20,-6,-128,-13,-19,-2,-31
1534208395824937,-36,-1,127,93,25,41,51,-27
1534208395824937,-4,0,-44,-83,-9,19,12,56
1534208395833969,58,-13,-10,-23,45,-16,-35,-4
1534208395833969,-18,41,-17,98,-19,14,-1,-9
1534208395848936,1,-16,-67,2,-3,-5,-18,27
1534208395848936,8,4,127,91,24,21,9,-2
1534208395850936,-44,13,5,-53,-34,-42,-13,9
1534208395850936,12,-12,-28,-54,-6,17,4,-11
1534208395870949,42,-18,-58,-108,-9,-27,-47,11
1534208395870949,-109,20,-9,4,-11,-12,7,-19
1534208395872937,28,3,-32,7,-14,-8,-34,-14
1534208395872937,30,1,26,22,31,28,-1,49
1534208395884982,-5,3,-30,-38,-4,6,2,-27
1534208395884982,38,-8,-54,-46,6,-6,21,3
1534208395893968,-31,17,118,-43,-1,7,-7,30
1534208395893968,18,19,-19,0,-5,21,5,-5
1534208395909017,-15,8,-52,21,3,-31,-4,9
1534208395909017,14,-13,-7,17,-6,14,13,2
1534208395910968,0,0,37,-43,-19,1,-10,5
1534208395910968,10,-8,6,57,41,12,11,13
1534208395930907,-37,34,22,15,-12,12,19,-86
1534208395930907,26,-6,98,-3,5,-8,-10,-2
1534208395932967,34,-14,-110,40,-18,-7,0,1
1534208395932967,-23,3,-14,-62,13,-6,3,-13
1534208395944988,9,-3,-61,-105,-24,-10,-3,33
1534208395944988,7,-3,26,12,37,26,17,11
1534208395953967,52,-11,-21,-29,11,7,8,-15
1534208395953967,-24,3,12,16,-10,-16,-4,-6
1534208395968935,-13,-19,28,28,-2,8,-1,23
1534208395968935,9,2,-25,0,-4,-3,5,-5
1534208395970967,26,-16,37,-15,-5,-8,3,7
1534208395970967,-3,-2,-98,-87,4,5,-10,-16
1534208395990955,-12,1,11,9,-18,-1,18,16
1534208395990955,2,2,30,37,15,-5,-18,1
1534208395992938,2,13,16,25,-2,4,17,5
1534208395992938,-10,2,-36,-8,-7,4,2,-7
1534208396005019,-1,4,33,-47,-3,-10,-4,4
1534208396005019,10,1,31,53,2,-3,4,1
1534208396013967,-13,0,-59,-30,-4,-5,-9,-1
1534208396013967,-13,3,-26,-40,1,7,6,-10
1534208396029016,0,-5,-11,67,13,-8,-6,11
1534208396029016,6,-1,23,-13,-3,9,2,3
1534208396030967,1,0,17,-22,0,-8,-7,1
1534208396030967,-7,-1,23,-21,4,15,12,-11
1534208396050954,-12,-10,-16,-19,-5,8,1,0
1534208396050954,4,4,-28,49,9,12,3,3
1534208396052966,27,-2,-3,32,8,11,7,16
1534208396052966,20,-2,8,-31,4,2,2,9
1534208396064936,-24,-4,34,-39,-19,-22,-24,-15
1534208396064936,-30,11,-41,-1,28,-2,-6,-28
1534208396074966,27,-13,11,60,-14,12,9,12
1534208396074966,-19,18,-4,35,-21,-16,-42,-16
1534208396086902,20,-5,6,-79,31,31,29,-4
1534208396086902,95,-55,-9,-57,-94,-6,12,97
1534208396096934,12,39,14,54,-21,16,-4,44
1534208396096934,-24,15,-9,-50,22,-10,-21,-41
1534208396110953,-113,0,9,39,-11,-25,-37,-65
1534208396110953,-43,-4,12,-12,-19,-40,3,-96
1534208396112936,58,1,3,-14,9,-2,-8,-19
1534208396112936,77,-27,-21,-13,-64,-49,35,108
1534208396125014,14,4,-15,-38,67,15,25,112
1534208396125014,-62,28,49,82,14,8,2,-31
1534208396133965,-96,-18,69,-28,14,7,-19,-76
1534208396133965,88,12,-60,-69,18,38,-18,-65
1534208396148939,56,-18,45,48,-12,1,39,14
1534208396148939,33,-8,-99,-15,-42,-26,44,118
1534208396150965,-22,80,57,-100,60,-12,-40,-18
1534208396150965,-72,10,70,52,-11,11,9,-38
1534208396170953,-26,-23,-17,-97,-10,6,-36,-62
1534208396170953,6,-8,19,62,5,-32,-16,-26
1534208396172964,-41,36,-26,-5,-22,-21,12,-15
1534208396172964,81,-84,-74,2,-48,-4,27,54
1534208396184982,-10,75,73,22,-3,24,2,6
1534208396184982,-36,-37,98,83,80,35,-5,-22
1534208396193966,0,8,-79,-23,-16,-58,-24,1
1534208396193966,37,-9,119,127,-23,19,5,20
1534208396207986,16,6,-35,-47,-51,-15,-1,3
1534208396207986,-15,-50,-13,-93,0,2,-16,-8
1534208396214964,-20,-37,-25,36,-46,0,5,6
1534208396214964,-44,19,-32,-35,47,11,-4,-4
1534208396230904,23,-47,-2,100,29,3,12,9
1534208396230904,-15,51,-19,-122,20,16,-13,-25
1534208396232932,15,-61,-56,-28,0,-8,5,17
1534208396232932,-56,9,-24,-10,24,-12,-14,-34
1534208396253962,56,-41,-2,35,-12,22,29,42
1534208396253962,2,36,-1,20,15,-5,-2,17
1534208396255963,29,-44,6,-8,73,-8,-14,-11
1534208396255963,-35,44,71,45,-82,11,7,-8
1534208396268010,23,21,-74,-114,-28,-38,-29,-5
1534208396268010,26,61,53,103,13,12,-3,6
1534208396275009,-15,-13,-28,-14,-10,-12,-13,-15
1534208396275009,-40,39,118,30,58,18,29,-7
1534208396290944,-15,2,21,49,3,-8,-11,-8
1534208396290944,-12,-20,-9,-12,9,6,25,20
1534208396292963,63,-31,9,9,-59,5,5,14
1534208396292963,8,-7,-8,-5,-3,-20,-21,-6
1534208396313965,-9,5,27,11,-22,-4,4,-1
1534208396313965,4,9,-29,38,16,-16,-34,-24
1534208396315962,-62,-16,-45,-32,17,30,5,10
1534208396315962,37,33,0,18,-3,50,89,24
1534208396328015,14,-30,28,-13,-13,-56,-50,-14
1534208396328015,20,55,10,-33,-8,-19,-49,-6
1534208396335011,-17,19,66,82,-7,31,82,3
1534208396335011,45,-25,-57,-44,2,-67,-108,46
1534208396350950,-58,3,-37,-41,20,91,102,-90
1534208396350950,45,-32,88,46,32,64,56,-16
1534208396352931,79,40,-7,52,8,89,61,92
1534208396352931,-89,-24,16,-27,-5,-61,-57,-5
1534208396374015,14,-6,19,30,-3,-72,-77,-23
1534208396374015,48,-16,16,-30,-9,-7,-52,-21
1534208396375962,-43,23,-8,-30,-10,-37,-57,-33
1534208396375962,76,-17,5,29,22,49,97,17
1534208396387985,0,-40,-60,-85,-16,-87,-103,-8
1534208396387985,-68,46,73,-32,10,1,-3,-36
1534208396395010,65,14,9,48,1,73,54,66
1534208396395010,-50,24,45,43,-16,-29,-48,-76
1534208396409950,-69,-66,-69,-96,5,20,-1,75
1534208396409950,67,20,-62,9,12,-29,-44,-62
1534208396418933,40,-56,98,71,-26,-91,-73,-55
1534208396418933,86,5,-128,-128,25,107,99,102
1534208396433982,83,-25,127,127,19,-46,-62,-96
1534208396433982,-88,-59,4,71,-30,48,21,112
1534208396440010,65,6,-32,-117,-15,-48,-50,31
1534208396440010,-22,-59,-56,127,10,14,2,-101
1534208396447932,-6,23,56,62,-37,-80,12,-29
1534208396447932,110,13,-80,-30,-8,5,15,35
1534208396455009,-128,3,99,113,23,78,72,-76
1534208396455009,2,-15,-48,-22,-33,-40,-109,45
1534208396470949,18,87,-54,-37,52,66,78,-30
1534208396470949,-8,-18,71,-123,4,-92,41,48
1534208396472929,65,18,-60,-121,-46,53,84,86
1534208396472929,-76,-57,-25,45,2,-70,-58,36
1534208396494009,98,13,65,69,48,65,60,-33
1534208396494009,-104,-1,-90,-60,-9,-47,-68,-84
1534208396495960,103,59,76,62,30,3,-56,31
1534208396495960,-105,5,6,45,-6,-33,34,15
1534208396506948,-1,-27,-115,-88,-39,-13,-67,39
1534208396506948,105,14,45,127,-13,31,-46,19
1534208396516960,-97,-104,104,-80,-20,-38,54,-45
1534208396516960,-37,119,66,92,36,5,5,-112
1534208396530898,0,-19,-60,101,39,27,1,37
1534208396530898,-128,-20,12,-81,-35,3,31,-12
1534208396532959,37,-32,4,-89,-18,-46,-83,-7
1534208396532959,77,-18,7,44,37,29,36,28
1534208396553977,-38,30,38,-111,-28,19,44,44
1534208396553977,-7,-9,-20,82,5,16,5,-20
1534208396555959,-45,5,-26,-15,2,-47,-78,-37
1534208396555959,-1,-2,-7,-54,8,-15,13,-9
1534208396566947,39,23,-20,-7,-16,20,9,39
1534208396566947,53,-37,4,-123,-17,-36,-50,-2
1534208396576928,5,27,-113,120,23,28,45,-1
1534208396576928,38,7,-9,-99,2,13,-13,5
1534208396590947,-33,-16,103,-26,8,-11,-28,8
1534208396590947,-1,1,70,76,-9,7,26,5
1534208396592930,-16,10,-41,-97,8,-16,0,-7
1534208396592930,41,-20,-21,61,14,17,-2,8
1534208396613961,-79,3,61,22,-27,2,9,50
1534208396613961,34,45,-101,28,12,-1,14,-16
1534208396615959,-3,4,9,-23,13,-5,-13,-10
1534208396615959,14,-10,41,43,-13,-5,-23,-8
1534208396626946,51,-7,-128,-114,-4,-10,9,11
1534208396626946,2,10,11,123,15,31,30,22
1534208396636958,-64,-34,-14,-105,-13,-3,-15,-14
1534208396636958,10,13,56,27,-30,-36,-12,1
1534208396650946,25,1,-7,19,8,13,1,-7
1534208396650946,8,-16,20,-60,4,3,12,-5
1534208396652958,31,23,-13,75,-4,0,-6,-6
1534208396652958,-21,-8,15,-27,-1,4,3,-7
1534208396674010,-36,9,-19,-5,10,-2,1,-5
1534208396674010,-7,-12,-66,-106,-12,1,-9,0
1534208396675960,-15,20,-8,-11,11,-6,5,10
1534208396675960,6,0,-8,-80,-10,-4,-3,-5
1534208396695899,-14,11,-41,11,3,0,-1,-4
1534208396695899,5,8,53,100,-1,1,9,9
1534208396697929,18,-13,-27,101,12,0,5,-6
1534208396697929,-3,6,-17,-81,-4,0,-3,-9
1534208396710895,6,-1,-8,-32,-12,-13,-13,-2
1534208396710895,0,-7,-4,18,-2,-1,14,8
1534208396712926,-8,10,8,-43,-11,-12,0,-6
1534208396712926,-4,-12,7,-5,-1,6,5,-1
1534208396733972,-30,16,13,-35,2,-6,-6,-6
1534208396733972,-18,4,4,-21,-60,-12,-14,-21
1534208396735957,8,10,-4,51,96,21,5,-1
1534208396735957,6,9,21,43,-26,13,14,15
1534208396746895,58,17,13,15,-22,10,16,35
1534208396746895,25,-13,-2,-59,1,-3,-2,8
1534208396756956,-28,-1,-16,-95,-45,-41,-38,-33
1534208396756956,-42,-5,1,-11,-5,7,-19,-30
1534208396770945,-3,-6,16,94,47,41,11,8
1534208396770945,62,-6,31,43,45,54,31,50
1534208396772957,-11,15,67,23,-18,-2,-5,-3
1534208396772957,-6,-6,-28,-85,-32,-31,-15,-15
1534208396794005,-5,-25,-9,-4,-37,-19,19,4
1534208396794005,34,10,-38,-63,-24,-45,-21,17
1534208396795958,15,-18,0,26,6,-19,-6,27
1534208396795958,-21,4,7,-4,16,-12,-21,-37
1534208396806944,-47,27,9,55,24,1,-18,-41
1534208396806944,5,-26,-9,-9,7,3,29,-15
1534208396816924,-37,-10,-9,15,2,28,39,48
1534208396816924,-30,35,25,-22,8,-12,0,4
1534208396830894,88,-40,-19,13,-20,-3,-1,17
1534208396830894,33,47,-20,-3,20,0,-12,5
1534208396832925,-80,46,53,22,-24,-34,-58,-94
1534208396832925,32,-39,-48,31,34,56,57,54
1534208396854004,-12,-71,-26,-90,-3,-3,30,17
1534208396854004,48,55,81,74,-30,-24,-8,-7
1534208396855955,62,10,-103,-17,11,2,-7,29
1534208396855955,-43,-8,79,-17,10,5,-20,-35
1534208396866943,-117,104,47,-39,21,-8,-21,-39
1534208396866943,52,-31,-93,32,21,4,36,47
1534208396876955,12,41,27,-89,-7,5,-3,-15
1534208396876955,13,-20,-31,5,-21,5,13,27
1534208396890943,27,9,70,3,12,5,-4,7
1534208396890943,-79,4,100,-81,0,-4,-13,-29
1534208396892955,17,-7,102,94,15,12,-10,12
1534208396892955,14,-37,-74,-105,-20,-31,14,-12
1534208396913957,27,-2,40,43,-40,27,-8,16
1534208396913957,-62,-8,-36,43,11,30,16,-26
1534208396915956,31,-45,-24,-120,-1,7,17,38
1534208396915956,35,18,127,122,-10,-42,-32,-15
1534208396926942,-43,6,-51,26,17,-28,-35,-16
1534208396926942,49,-29,61,69,29,21,33,40
1534208396936923,-22,88,-77,-92,-18,3,-8,-23
1534208396936923,-16,-5,65,72,25,-6,-21,-7
1534208396950893,-25,31,-123,-128,-18,-3,-2,-7
1534208396950893,-14,-50,49,63,16,6,-27,-19
1534208396952922,22,-8,41,95,-17,-13,12,2
1534208396952922,41,-13,-65,-37,-8,4,7,18
1534208396973953,-17,-2,-6,54,-19,-50,-35,-20
1534208396973953,-61,33,36,-80,23,54,-3,-11
1534208396975955,1,6,37,37,1,3,35,-4
1534208396975955,82,11,11,-52,11,-9,25,42
1534208396995942,18,-67,-75,-26,-33,-60,-78,1
1534208396995942,-12,-8,-60,-35,-16,-19,76,-19
1534208396997925,37,-21,123,127,19,-10,-25,28
1534208396997925,-20,32,-114,-128,14,98,32,-6
1534208397010941,-16,-20,63,98,5,0,60,-31
1534208397010941,-9,-1,15,-27,-22,-64,-93,-19
1534208397012953,12,-6,-39,5,-31,-33,-13,-17
1534208397012953,-14,-26,-79,-17,-8,-56,-121,31
1534208397034005,80,23,73,-63,57,101,108,8
1534208397034005,-32,27,26,39,-19,-15,9,-5
1534208397035953,62,-30,-27,4,4,-1,-47,-3
1534208397035953,-87,-18,35,-16,-22,-1,13,-45
1534208397046892,110,9,-6,32,-25,-67,-64,0
1534208397046892,52,26,-4,-24,19,-9,44,40
1534208397056921,79,-64,-69,-108,2,99,71,88
1534208397056921,-11,80,81,127,1,-22,-71,55
1534208397070940,-128,-61,-4,-107,-17,-19,-27,-43
1534208397070940,127,9,-86,-35,-20,-53,-117,-34
1534208397072922,-33,48,95,106,15,-38,48,-20
1534208397072922,11,-56,-97,-107,-17,28,42,1
1534208397093952,85,16,79,127,27,-68,-80,-24
1534208397093952,23,18,64,-98,75,85,68,-1
1534208397095953,-27,4,-128,-107,-87,-68,-118,-23
1534208397095953,43,12,127,127,29,91,127,-12
1534208397106888,14,-21,-102,-123,-43,-44,-60,26
1534208397106888,-43,-70,4,-65,-12,-18,2,25
1534208397121889,66,-9,-22,-3,6,-43,-77,-17
1534208397121889,1,-35,-3,-127,22,45,54,-11
1534208397130923,-26,-28,101,87,-24,-8,-35,31
1534208397130923,-121,-24,-103,-33,25,-18,-45,4
1534208397136890,-45,13,21,-58,-2,90,127,3
1534208397136890,17,-13,-126,-96,-69,-47,-88,6
1534208397153963,-43,34,63,115,74,67,76,33
1534208397153963,-38,0,127,33,-26,-37,-91,-39
1534208397155951,-2,-31,-74,-34,27,10,89,76
1534208397155951,-32,39,-54,-68,-20,-90,-128,-18
1534208397166932,11,0,5,-86,9,19,-18,-6
1534208397166932,-6,-3,41,127,-8,-22,-12,23
1534208397176920,82,-64,-109,-42,-14,-49,-117,9
1534208397176920,-43,74,127,116,25,10,41,-76
1534208397191000,-33,19,35,-41,-8,32,49,69
1534208397191000,-51,4,25,-36,-13,-38,-13,-86
1534208397196889,-47,18,-19,42,24,27,43,-19
1534208397196889,37,10,81,59,19,32,36,46
1534208397213953,-24,-8,19,-60,-35,19,19,8
1534208397213953,51,5,0,54,24,12,-45,-17
1534208397215922,-88,-5,16,36,16,10,55,-6
1534208397215922,25,14,-33,-42,12,41,36,19
1534208397235938,33,15,-34,-12,-9,-26,-41,-30
1534208397235938,-6,-3,-40,-93,-39,13,9,41
1534208397237952,22,7,-13,10,22,-22,-55,-39
1534208397237952,-17,-1,-56,25,-19,-41,-21,-8
1534208397250999,37,5,5,-6,16,30,42,32
1534208397250999,15,30,-97,-105,-38,2,6,5
1534208397256938,-30,1,60,24,25,6,-10,-10
1534208397256938,37,-1,38,100,52,-10,-1,-14
1534208397274002,-22,6,-52,2,-12,8,-3,22
1534208397274002,29,-5,-104,-77,-20,6,17,16
1534208397275950,3,1,29,-94,-11,-12,-21,-21
1534208397275950,-5,-40,24,0,-4,-10,-10,12
1534208397295937,18,6,-1,96,14,-8,-4,6
1534208397295937,11,-18,15,33,0,4,14,-28
1534208397297922,-67,14,-68,-46,1,-11,-11,-20
1534208397297922,12,66,83,14,16,67,41,45
1534208397310937,-3,19,-9,38,9,-13,-17,-14
1534208397310937,-1,-2,5,59,-11,8,12,3
1534208397312918,-2,0,73,78,2,-4,-11,1
1534208397312918,5,-16,-2,88,1,-18,-18,-13
1534208397334002,-4,4,-15,-88,-8,2,9,-23
1534208397334002,83,-12,-10,-16,4,-3,-11,32
1534208397335950,-50,31,40,52,12,30,54,-36
1534208397335950,6,-22,-40,-67,-20,-39,-22,-4
1534208397355937,19,-4,-54,-89,0,23,15,-6
1534208397355937,4,3,47,83,6,-10,-8,-4
1534208397357950,9,-17,-23,-71,-4,2,-11,14
1534208397357950,3,-11,57,7,-11,-13,-5,-10
1534208397371001,-16,-16,-5,23,-13,12,19,-10
1534208397371001,-28,8,25,-62,6,-4,1,7
1534208397376936,9,4,60,10,-46,-18,-20,-3
1534208397376936,-14,-14,-56,-28,22,11,8,4
1534208397393997,18,4,-50,77,-2,-9,-16,-5
1534208397393997,-36,7,19,-22,-26,-1,11,3
1534208397395948,4,2,-9,-36,-16,6,-3,0
1534208397395948,7,-12,-57,-128,-47,-44,-23,-11
1534208397415936,-19,-15,56,60,41,9,7,-11
1534208397415936,-12,12,2,53,27,33,20,4
1534208397417948,5,9,-30,-58,-15,0,-9,0
1534208397417948,1,7,-4,12,25,-8,-14,-11
1534208397430920,-18,15,-22,-71,-43,-33,1,-8
1534208397430920,-39,-16,-22,75,24,25,20,1
1534208397436886,-23,2,27,55,5,18,-8,-14
1534208397436886,104,-49,23,47,-7,14,54,98
1534208397453936,42,36,-80,-69,-22,-20,-11,22
1534208397453936,-73,-3,28,-25,-48,-49,-61,-71
1534208397455949,-34,18,26,7,2,23,-7,-26
1534208397455949,-24,-6,-23,-4,22,24,8,-15
1534208397475935,73,-22,-4,21,-13,20,18,72
1534208397475935,4,65,-49,-71,-42,-50,-26,-5
1534208397477947,-31,-1,44,39,24,-33,-40,-43
1534208397477947,-69,9,-23,-11,-5,-21,-26,-46
1534208397489996,-75,1,44,14,24,6,27,-31
1534208397489996,-74,8,12,-6,10,-3,0,-32
1534208397498947,66,-6,-1,-23,-13,-9,2,53
1534208397498947,55,38,19,58,4,-6,-8,5
1534208397513949,-42,-53,27,86,4,1,-1,-2
1534208397513949,83,-48,0,2,-16,29,27,32
1534208397515946,82,31,-83,-72,-23,-54,29,60
1534208397515946,-37,6,42,-10,-26,-29,-33,-27
1534208397535934,-38,54,94,56,54,23,-39,-47
1534208397535934,-62,0,103,127,-11,16,21,-14
1534208397537952,5,58,6,-93,54,84,16,7
1534208397537952,-17,-84,-102,12,-72,-97,-41,-7
1534208397549995,56,-13,90,84,13,18,17,8
1534208397549995,17,37,-112,-128,-1,14,6,18
1534208397558946,-12,21,-14,39,31,-16,3,15
1534208397558946,-57,-6,101,78,11,78,21,-22
1534208397573943,66,74,-121,-89,-59,-34,8,17
1534208397573943,37,-39,27,-20,11,32,-4,22
1534208397575945,-35,-20,-41,87,-4,-29,-23,-24
1534208397575945,-24,-11,-29,74,9,46,20,-14
1534208397595926,-39,-86,-45,-104,-27,-31,-9,-10
1534208397595926,-21,12,41,54,65,13,1,-5
1534208397598883,86,-9,80,127,-14,0,4,27
1534208397598883,-13,39,24,-108,1,-11,-24,-4
1534208397609943,3,-63,-38,-39,-6,15,18,-12
1534208397609943,24,-1,-98,-33,-21,-7,-22,0
1534208397618945,-94,-26,-1,9,30,18,2,-47
1534208397618945,51,76,46,-5,-36,-55,-6,38
1534208397633945,6,-64,-29,-56,-29,-4,-10,7
1534208397633945,-13,-42,-41,-24,3,-9,5,4
1534208397635944,-31,-27,74,-22,-8,4,3,-11
1534208397635944,60,15,-60,7,29,22,-5,16
1534208397655926,-39,46,71,38,12,-18,-7,-14
1534208397655926,13,-14,-54,-78,-18,-31,-19,-16
1534208397657944,23,-9,53,40,-20,28,23,33
1534208397657944,5,-7,51,32,1,-16,-7,-10
1534208397669987,0,-17,39,11,17,-58,-51,-5
1534208397669987,9,24,33,-8,29,58,10,14
1534208397678944,9,37,-117,-30,-24,-12,40,8
1534208397678944,-11,26,6,19,13,27,0,-5
1534208397693987,23,17,-46,30,3,-20,-29,5
1534208397693987,-40,-26,30,8,-17,-43,-52,-18
1534208397695944,110,-11,-30,-73,-1,-26,-85,-5
1534208397695944,-77,-21,-28,-28,13,62,120,16
1534208397715882,12,10,27,40,32,104,86,-3
1534208397715882,81,15,-6,13,7,-30,2,69
1534208397717944,-109,-29,30,-21,-17,-5,-34,-83
1534208397717944,17,-58,-36,-43,-11,-75,-116,-41
1534208397730883,93,2,-3,70,5,-1,-88,-31
1534208397730883,-51,22,39,17,81,121,127,102
1534208397738944,8,-1,27,-40,-36,-8,-49,23
1534208397738944,112,8,-40,15,5,-91,-105,16
1534208397753955,-128,1,6,-116,-24,-42,-23,-71
1534208397753955,116,-70,10,97,2,32,-60,22
1534208397755943,-22,56,-83,61,49,59,94,10
1534208397755943,-90,-49,28,-32,45,127,127,-3
1534208397775924,-91,-15,58,74,-22,-66,-67,-8
1534208397775924,56,-20,0,35,22,-111,-93,-80
1534208397777943,-33,-35,-64,-72,-52,3,-19,54
1534208397777943,82,0,-123,-113,-39,6,47,19
1534208397789985,32,0,27,107,39,30,48,28
1534208397789985,9,21,86,-7,9,32,86,6
1534208397798915,-55,-33,-27,-52,-26,-108,-128,-25
1534208397798915,41,47,-67,-15,19,98,108,14
1534208397813944,-27,-57,55,69,-30,-81,-104,-17
1534208397813944,-101,7,-38,-109,-42,-34,82,76
1534208397815942,39,-68,-34,118,22,38,-30,-69
1534208397815942,114,18,-52,-66,31,14,-33,51
1534208397835923,-92,121,-83,-17,18,-22,1,-45
1534208397835923,114,-71,108,0,-36,-59,-46,-33
1534208397837943,42,6,-42,50,0,-67,33,23
1534208397837943,-128,20,57,9,-15,10,-9,26
1534208397849942,89,-39,-110,-52,10,43,39,5
1534208397849942,-99,12,42,49,-12,-47,-47,-30
1534208397858942,123,72,24,-4,1,45,25,34
1534208397858942,-59,-4,68,46,40,-21,-44,-118
1534208397873984,65,-21,74,-11,-16,-29,-29,44
1534208397873984,69,19,-35,44,-4,87,94,43
1534208397875943,-3,-79,82,-58,32,-13,28,-6
1534208397875943,-1,-45,71,63,-41,-51,-90,15
1534208397895923,7,60,-49,-69,-13,-11,22,0
1534208397895923,-9,23,0,-128,0,22,39,-23
1534208397897915,-4,7,65,127,12,8,10,-10
1534208397897915,16,15,6,-81,11,-31,-9,4
1534208397909987,-11,-13,11,-62,-23,19,-2,8
1534208397909987,-2,15,35,101,1,-14,-20,-13
1534208397918941,-29,19,-11,-98,6,21,25,35
1534208397918941,-5,-36,-16,-1,-23,-54,-46,-56
1534208397933941,4,3,45,-2,2,4,18,18
1534208397933941,-20,-9,-61,-40,-7,-8,-32,-11
1534208397935941,0,14,39,62,13,4,4,-7
1534208397935941,24,-3,-66,-38,-14,-26,-27,11
1534208397955879,-2,14,-14,-70,20,56,52,11
1534208397955879,-17,33,27,79,-6,-19,-31,-17
1534208397957940,-17,-23,27,-4,-3,-22,-12,5
1534208397957940,43,-2,-72,-65,-3,13,9,2
1534208397969941,18,35,-68,90,36,26,26,34
1534208397969941,-15,6,44,-2,15,-16,-19,-16
1534208397978940,8,0,29,-86,-38,10,9,-2
1534208397978940,-16,2,29,11,-7,1,21,21
1534208397993982,3,2,48,41,1,-1,0,-3
1534208397993982,-13,7,-100,-68,4,1,-19,-6
1534208397995940,-4,-7,-15,-47,-4,-18,-4,-9
1534208397995940,-30,-5,52,-56,-16,-30,-43,6
1534208398015881,-24,10,-5,58,14,25,47,-3
1534208398015881,20,-1,-65,-1,3,-8,-20,-24
1534208398017940,0,4,71,-12,-2,13,16,17
1534208398017940,-14,-2,-62,36,-17,-28,-16,-11
1534208398030879,10,-9,65,-10,28,9,-1,16
1534208398030879,-17,-14,70,-23,-30,4,6,5
1534208398038939,-1,18,-109,-40,10,-6,-3,-9
1534208398038939,29,11,72,116,35,22,20,4
1534208398053940,-71,8,27,49,-19,-11,-14,-9
1534208398053940,-10,-4,-23,-28,-12,-1,7,-4
1534208398055939,12,-2,-1,8,-1,-7,-11,-2
1534208398055939,2,10,-30,-25,4,5,10,1
1534208398075921,23,-5,31,-114,-7,-3,-9,-7
1534208398075921,-12,-6,6,42,-10,8,-9,-3
1534208398077939,-10,9,5,127,91,17,14,14
1534208398077939,11,-4,7,-67,-32,-10,11,5
1534208398089981,8,-4,-24,-72,-11,-9,-8,-10
1534208398089981,-49,-7,-38,-56,-76,-34,-25,-38
1534208398098939,18,-17,38,66,-39,26,25,5
1534208398098939,101,4,1,28,35,33,55,84
1534208398112953,23,-6,4,-26,-31,-15,-6,-1
1534208398112953,-13,10,-29,-42,11,-6,-9,-6
1534208398119919,-55,-1,-5,-59,-39,-28,-35,-44
1534208398119919,-30,-11,30,58,4,4,-13,-23
1534208398135919,29,0,-20,-19,-14,35,11,21
1534208398135919,28,7,-4,33,25,22,7,34
1534208398137938,8,-1,-9,-22,9,0,-16,0
1534208398137938,-21,23,16,-6,-1,-20,-26,-25
1534208398158980,0,-13,-7,8,18,-3,3,-23
1534208398158980,-35,6,-19,-11,0,-15,-6,-11
1534208398160906,6,-3,27,45,0,-7,14,25
1534208398160906,23,-8,5,-20,19,20,14,17
1534208398172953,-1,-3,0,47,-12,-37,-19,-13
1534208398172953,-57,28,3,-19,18,-11,-43,-65
1534208398180876,-73,-19,-9,-51,-65,-23,-38,-93
1534208398180876,64,-14,50,97,-22,53,93,60
1534208398195918,86,7,-24,-10,-19,-3,28,110
1534208398195918,61,-13,5,-36,-3,14,18,18
1534208398197910,-50,35,-27,-51,1,-45,-54,-61
1534208398197910,-128,7,-16,-11,0,-48,-77,-128
1534208398218981,19,-31,-16,15,0,36,10,-17
1534208398218981,25,28,9,49,-17,28,56,61
1534208398220937,89,-16,48,8,-33,7,10,44
1534208398220937,-20,7,-12,-51,5,-22,-20,-34
1534208398232906,-111,52,37,20,14,-6,-29,-53
1534208398232906,-29,-14,-44,-47,35,-6,-24,-25
1534208398239982,113,-54,-67,41,5,23,56,77
1534208398239982,26,46,-31,-68,-29,-6,15,39
1534208398255918,62,12,85,18,-9,10,4,26
1534208398255918,-56,92,29,-69,1,-6,-33,-41
1534208398257937,-44,-3,-14,-29,-15,-37,-11,-21
1534208398257937,11,-66,-38,14,-48,-33,-26,-4
1534208398278982,-1,26,-48,-36,37,30,35,19
1534208398278982,29,-17,5,-16,-33,15,11,-7
1534208398280905,19,90,-17,-41,51,34,25,35
1534208398280905,-89,-34,15,10,-30,-49,-42,-45
1534208398292947,40,-58,-81,-85,28,-22,-3,-7
1534208398292947,-20,-17,88,127,-11,1,-5,-1
1534208398299937,54,-8,51,100,74,35,5,-6
1534208398299937,5,9,48,7,-25,-20,3,20
1534208398315876,-18,7,-88,-7,8,-11,-12,-9
1534208398315876,-10,24,49,70,22,-13,0,1
1534208398317936,-27,30,-55,-96,-30,4,-22,-22
1534208398317936,-16,-3,64,126,48,57,38,3
1534208398338984,79,-45,10,-24,25,8,10,39
1534208398338984,-14,19,-45,-34,-24,-32,-3,3
1534208398340936,14,-29,49,39,-36,-15,-25,-9
1534208398340936,8,21,-75,-37,18,28,31,7
1534208398352953,3,82,64,-63,-41,-14,-13,-10
1534208398352953,18,-47,19,88,31,8,11,-2
1534208398359984,-32,49,-24,-56,14,-20,-11,7
1534208398359984,21,37,-57,-45,-9,-3,-9,3
1534208398375922,-32,21,79,109,7,-30,-23,-20
1534208398375922,19,-48,-92,-86,-4,34,1,8
1534208398377935,-14,13,37,18,3,41,86,18
1534208398377935,-11,-3,20,-23,26,-25,-68,-4
1534208398398908,-21,-12,9,68,7,58,90,-4
1534208398398908,23,24,-24,-38,-19,-60,-101,-10
1534208398400904,-10,-54,-21,-24,-9,-26,-22,1
1534208398400904,-37,23,9,65,14,15,-28,-4
1534208398412956,52,-24,-42,-97,-19,-28,33,11
1534208398412956,-60,1,-24,43,6,11,35,-55
1534208398419983,57,-15,11,13,45,85,109,79
1534208398419983,-13,21,51,-6,-25,-44,-39,-14
1534208398435877,32,-37,-41,53,-24,-70,-93,-48
1534208398435877,-91,-13,15,22,36,-17,20,-3
1534208398437934,89,20,42,76,-29,-1,-71,16
1534208398437934,-84,16,53,-44,36,40,100,7
1534208398458933,-87,-39,-62,-106,-33,-47,-86,12
1534208398458933,127,-48,63,63,13,60,107,21
1534208398460933,-4,-60,-80,-78,-36,-126,-128,12
1534208398460933,121,42,99,93,46,89,127,42
1534208398472903,-108,64,111,102,60,29,18,-57
1534208398472903,8,-47,-43,-112,-42,-85,-96,42
1534208398480873,-53,43,67,104,15,-110,-93,-16
1534208398480873,-16,-89,-120,-114,-32,-4,50,35
1534208398495915,1,4,19,45,-7,89,28,-43
1534208398495915,-8,-21,-81,-111,9,11,21,50
1534208398497906,-111,45,127,127,0,8,3,-56
1534208398497906,-40,-49,-36,-128,24,-123,-128,38
1534208398518978,101,37,34,124,-9,35,-8,-97
1534208398518978,-20,44,15,-126,30,-2,64,93
1534208398520901,61,18,-48,-15,-98,2,54,22
1534208398520901,-53,46,84,127,46,39,0,-86
1534208398531871,33,0,-9,-125,-41,-16,-38,-34
1534208398531871,65,22,-83,49,56,47,-22,52
1534208398541932,-36,-20,-3,14,20,3,28,-45
1534208398541932,32,-13,30,15,-22,-45,-17,-43
1534208398555920,-125,-13,-34,-104,0,13,-60,-7
1534208398555920,32,19,127,95,-6,-26,59,-38
1534208398557932,42,9,-70,-62,-7,12,17,15
1534208398557932,-92,23,60,-16,-12,-46,-81,-32
1534208398578984,16,-45,96,-63,21,-14,33,16
1534208398578984,50,7,-75,-117,-41,-8,-32,-6
1534208398580932,-40,18,-4,9,29,66,70,-18
1534208398580932,49,-21,-27,-2,-14,34,-4,-5
1534208398591920,-33,-18,-43,-57,-11,-53,-6,58
1534208398591920,-63,12,27,33,-5,28,-20,-73
1534208398601932,35,-4,63,-52,-8,-8,-2,-29
1534208398601932,80,18,-127,91,-14,14,17,31
1534208398615872,-40,-19,-47,-29,12,-13,20,33
1534208398615872,-2,-6,61,53,6,20,-2,-8
1534208398617932,-24,-26,77,-72,-6,-11,-6,-4
1534208398617932,8,1,-47,-92,-18,-7,16,2
1534208398638984,1,15,12,-39,-7,1,8,23
1534208398638984,27,-17,-15,112,-1,-63,-57,-30
1534208398640901,-4,6,70,33,36,17,5,3
1534208398640901,35,15,-8,-114,-46,14,9,11
1534208398651919,18,15,7,81,5,-3,6,6
1534208398651919,5,-15,-21,-12,-5,-10,-13,-6
1534208398661931,-35,-14,-86,-42,12,-3,-8,0
1534208398661931,11,2,17,70,10,-1,-47,-13
1534208398675918,48,28,7,29,-10,44,28,36
1534208398675918,-25,3,9,-32,-10,-7,-14,-1
1534208398677933,0,2,34,33,30,17,0,9
1534208398677933,5,-3,113,-27,-14,-39,-42,-17
1534208398698905,19,-3,111,-2,-15,-7,0,2
1534208398698905,-25,10,60,82,37,41,23,-4
1534208398700931,-56,14,-71,-2,-20,-10,-13,8
1534208398700931,19,-1,-41,29,14,9,28,10
1534208398711918,-26,6,-29,67,4,-9,-5,1
1534208398711918,18,0,-7,-105,-31,-5,12,21
1534208398721933,19,-18,-89,-49,7,-9,-17,-21
1534208398721933,89,-2,32,84,45,34,49,19
1534208398736918,-65,-9,-52,-99,-43,4,-25,3
1534208398736918,0,0,21,-40,-2,-15,-16,10
1534208398738930,15,3,39,-85,-2,13,11,14
1534208398738930,4,-8,-117,41,-4,-5,6,3
1534208398758934,22,-5,-1,-12,-2,-27,-16,-6
1534208398758934,-9,-13,-8,-43,-6,25,21,-10
1534208398760901,-11,-2,53,37,4,9,3,4
1534208398760901,-4,-3,11,-48,7,-4,2,-13
1534208398771917,12,-10,4,35,-19,-12,-4,-4
1534208398771917,-20,-6,29,70,25,13,0,2
1534208398781900,26,4,-52,-42,39,17,6,-6
1534208398781900,-12,5,11,32,-9,-1,-1,11
1534208398795918,-6,-2,-29,-50,-5,-14,-7,-8
1534208398795918,-7,6,-35,19,-6,-10,-12,-19
1534208398797901,0,-5,22,-40,-75,-21,-11,-11
1534208398797901,11,9,-47,-21,98,43,17,13
1534208398818982,19,3,44,98,-41,3,10,18
1534208398818982,0,14,-19,-23,13,-3,1,-11
1534208398820929,-7,11,-41,-59,-3,-16,-19,-35
1534208398820929,-111,21,-8,-128,-69,-29,-51,-79
1534208398831866,73,-6,45,127,-8,8,61,41
1534208398831866,107,-19,-34,26,29,83,97,107
1534208398841929,-10,12,-35,-60,-88,-43,-1,38
1534208398841929,-35,20,30,-15,-34,3,-11,-58
1534208398855865,-69,3,-37,-47,-5,-19,-43,-80
1534208398855865,-68,11,23,19,9,1,-40,-75
1534208398857929,3,-8,6,78,33,49,8,6
1534208398857929,51,-25,12,8,43,8,-2,35
1534208398878977,-47,19,1,19,27,-12,-49,-35
1534208398878977,-32,9,6,-13,-13,-48,-28,-27
1534208398880897,-8,-10,-26,8,18,-30,-12,-42
1534208398880897,75,-16,26,50,-5,-6,55,114
1534208398891916,61,3,-25,-15,22,-5,1,49
1534208398891916,-23,42,38,-21,-24,-32,-26,-12
1534208398901928,-116,53,-14,-41,1,-38,-69,-122
1534208398901928,-25,-54,-41,35,-63,-5,1,-48
1534208398915915,97,-26,-28,-1,23,52,104,104
1534208398915915,-35,68,42,-11,-15,-1,-24,7
1534208398917928,-18,-7,18,15,-8,-10,-17,-40
1534208398917928,-55,33,-58,-120,-60,-25,-42,-49
1534208398938980,6,-27,72,81,12,-1,-10,-21
1534208398938980,-13,-13,-127,-104,-9,24,4,-10
1534208398940927,17,14,77,61,-16,-47,-3,26
1534208398940927,-27,15,72,75,17,30,0,-6
1534208398951915,-63,-5,-111,-21,-28,-13,-28,-38
1534208398951915,83,5,51,-78,-17,22,29,37
1534208398961927,11,10,-108,-92,19,53,14,15
1534208398961927,-44,5,4,16,-32,-59,-16,-12
1534208398975865,3,3,42,52,7,-4,-14,-2
1534208398975865,48,-36,-26,29,-22,-7,33,24
1534208398977927,22,-23,-10,-33,45,28,13,21
1534208398977927,12,2,25,-78,2,11,7,8
1534208398998906,-47,21,6,88,20,-6,-40,-45
1534208398998906,-38,-21,73,123,-10,-35,-24,-32
1534208399000865,26,-51,4,29,42,17,38,40
1534208399000865,-16,18,85,80,37,63,7,4
1534208399011907,39,7,-113,-119,-17,-31,-21,-8
1534208399011907,3,-17,14,-98,3,-16,-24,5
1534208399021926,-10,33,1,94,-41,-40,-21,-20
1534208399021926,6,-1,18,26,18,-9,12,16
1534208399035972,-3,-9,-13,-40,21,24,13,-10
1534208399035972,-4,-3,50,24,-7,-18,-43,-30
1534208399041907,19,-32,-65,-104,-49,-2,7,18
1534208399041907,11,5,74,92,0,-8,13,13
1534208399058978,-31,18,30,-22,8,-9,-17,-9
1534208399058978,2,-23,-26,31,15,-2,28,-3
1534208399060897,-21,28,31,1,17,79,14,7
1534208399060897,54,-55,-67,-28,3,-15,-2,27
1534208399071913,5,-24,-68,-66,-41,-46,-54,-10
1534208399071913,-15,14,93,126,33,61,51,-10
1534208399081925,68,18,7,-27,-8,-8,30,12
1534208399081925,-66,6,-35,-3,11,-4,32,-8
1534208399095913,-10,10,12,-28,6,7,-40,-8
1534208399095913,72,-25,-103,26,8,67,75,27
1534208399097897,-41,4,113,83,9,-51,-76,23
1534208399097897,-19,13,18,-3,4,8,31,-18
1534208399118977,0,14,-16,-51,-15,-42,-59,-64
1534208399118977,76,-23,-43,-75,-18,-28,-14,-13
1534208399120864,-47,-7,6,76,45,99,106,78
1534208399120864,6,32,21,77,-11,-4,-39,56
1534208399140913,-17,-17,-15,-1,2,-4,-63,-45
1534208399140913,96,-16,22,43,-20,-116,-117,-21
1534208399142925,-66,1,-71,-76,43,6,-22,-35
1534208399142925,72,-10,89,5,-7,89,78,-30
1534208399154977,-66,11,29,-30,-10,10,42,42
1534208399154977,30,-58,56,26,-3,-33,-89,8
1534208399163896,-14,-69,-34,23,-78,-121,-80,-73
1534208399163896,-38,79,-78,-128,93,68,76,90
1534208399178976,15,62,26,58,36,117,45,16
1534208399178976,-37,-47,-53,-32,-32,-84,-118,-76
1534208399181862,-87,-72,28,30,13,-41,23,68
1534208399181862,97,41,-128,-50,20,20,-128,-128
1534208399200911,-10,-4,-11,51,-64,-68,79,81
1534208399200911,19,7,28,13,19,-72,-53,-61
1534208399202924,10,54,42,62,14,111,99,-64
1534208399202924,-49,-17,125,77,-44,15,-49,30
1534208399215942,97,25,-54,-126,52,26,-66,-31
1534208399215942,-46,-16,45,-8,12,13,-12,74
1534208399221911,19,8,45,-128,-1,-84,-55,-110
1534208399221911,-38,-3,101,87,-3,32,103,36
1534208399238976,-43,-33,18,-14,-23,-12,-3,6
1534208399238976,-128,27,-85,83,5,-14,-3,-32
1534208399240862,127,34,16,54,-7,-78,-98,22
1534208399240862,61,-34,-16,-20,35,63,74,57
1534208399260912,-18,-7,127,51,-38,-36,-52,-21
1534208399260912,-22,37,-128,-128,-14,26,13,-42
1534208399262923,-47,75,-32,110,15,24,18,111
1534208399262923,31,-36,54,-16,-21,-104,-87,-47
1534208399275975,77,35,40,-49,-6,-10,16,14
1534208399275975,-115,26,95,-1,13,58,93,2
1534208399281861,73,38,-96,-8,-39,-26,-43,-48
1534208399281861,34,-33,-128,-128,-35,-71,-83,-27
1534208399298896,-26,-6,127,103,39,13,45,61
1534208399298896,-13,44,11,-36,-8,33,4,-2
1534208399300922,-16,-32,42,90,1,46,30,3
1534208399300922,13,-14,-83,-24,-2,-63,-36,0
1534208399320859,16,5,-128,-22,-5,4,7,11
1534208399320859,29,-4,-13,-70,-4,-26,-41,20
1534208399322923,18,-14,-17,25,-1,14,24,24
1534208399322923,-11,-1,-49,15,-19,-32,-35,-18
1534208399335923,57,-25,-33,74,21,-10,-8,-11
1534208399335923,-81,0,-20,-38,-8,27,23,17
1534208399341909,27,-28,39,-91,1,10,0,-17
1534208399341909,-2,13,0,-49,-2,-11,-10,8
1534208399358975,-58,-7,-9,5,-13,-4,12,17
1534208399358975,52,2,105,41,14,20,29,13
1534208399360860,12,-5,63,19,13,5,-4,15
1534208399360860,9,4,113,89,-20,-13,-10,-6
1534208399380861,-11,-18,-9,-7,30,9,15,-3
1534208399380861,28,21,-10,8,-15,14,18,14
1534208399382921,-1,-9,14,5,14,2,-5,8
1534208399382921,-4,-3,10,-102,-17,-21,-21,-8
1534208399394974,0,0,14,106,6,0,5,-26
1534208399394974,-6,-10,-82,-17,-7,2,8,11
1534208399403921,45,-10,20,-40,-7,-16,-23,-13
1534208399403921,23,7,-21,6,20,20,25,12
1534208399418973,-15,4,14,-56,4,19,15,-4
1534208399418973,17,0,6,57,-10,-11,-6,1
1534208399420921,6,-1,4,28,-9,5,1,10
1534208399420921,-16,-10,1,36,3,-16,-24,-12
1534208399440908,3,-17,-28,-128,-22,-15,-2,-10
1534208399440908,-20,21,31,127,43,19,16,7
1534208399442920,-20,-8,13,-90,-10,5,-13,5
1534208399442920,-9,11,-48,-72,8,25,12,4
1534208399455969,16,-10,27,-34,-8,-9,-2,-10
1534208399455969,4,2,-25,-72,-6,-13,-5,-3
1534208399461908,11,1,-3,35,25,16,3,4
1534208399461908,-9,-3,-14,4,-16,-6,7,-1
1534208399478972,2,8,4,70,6,-6,-1,-2
1534208399478972,15,-10,30,3,-9,1,-1,9
1534208399480859,4,3,-32,-47,5,6,10,0
1534208399480859,6,3,-5,11,-23,-20,-4,-2
1534208399500908,1,-3,21,13,34,7,-7,-12
1534208399500908,1,-7,-7,18,-12,1,0,-1
1534208399502920,21,4,-16,-39,-11,7,13,1
1534208399502920,-6,8,6,-8,-11,11,-1,-4
1534208399515908,-7,4,-12,17,-22,-20,-7,-7
1534208399515908,3,0,-11,-5,39,20,15,-4
1534208399521907,-19,6,-20,-90,10,15,4,-13
1534208399521907,-3,-17,9,127,-1,6,5,2
1534208399538972,33,-3,3,-112,3,9,23,32
1534208399538972,27,-8,-20,-128,-51,-27,-1,11
1534208399540919,-1,-6,-17,5,-13,-14,-23,-12
1534208399540919,-50,2,-1,-21,-4,-17,-10,-53
1534208399560906,-33,-11,-16,29,25,8,-21,-22
1534208399560906,79,-6,10,52,-7,12,21,68
1534208399562919,60,6,5,-26,-24,-3,2,50
1534208399562919,-5,6,5,38,0,-27,-28,-9
1534208399574971,-32,22,13,8,6,-3,-11,-26
1534208399574971,-75,10,-5,-4,5,-29,-40,-58
1534208399583919,-14,-17,-28,17,-8,3,20,-5
1534208399583919,57,-1,16,-6,26,3,2,29
1534208399598895,18,-17,12,-26,-23,-6,16,11
1534208399598895,-15,13,-51,12,7,-1,-6,-12
1534208399600890,-82,9,9,11,1,-28,-30,-58
1534208399600890,-9,16,31,-38,4,18,12,-2
1534208399620906,58,-60,-68,-26,-72,-15,18,50
1534208399620906,82,5,6,-6,-10,24,50,77
1534208399622921,-3,-17,13,72,26,-18,-20,-15
1534208399622921,-43,22,-6,-73,-12,-32,-33,-31
1534208399634971,-48,47,-60,-22,-13,-34,-55,-78
1534208399634971,-29,27,71,58,15,45,15,1
1534208399643917,94,-12,-71,-7,-1,21,49,75
1534208399643917,66,-20,1,26,-17,-19,-10,12
1534208399658970,-24,33,52,32,37,-23,-23,-21
1534208399658970,-97,18,12,18,-48,-38,-50,-86
1534208399660920,-54,22,-13,-4,19,32,-1,-29
1534208399660920,-17,-3,56,-13,46,21,24,21
1534208399681885,51,7,26,64,-49,-8,-2,11
1534208399681885,-5,-20,1,-8,6,-1,-2,-3
1534208399682917,29,27,24,-3,-41,-36,-2,9
1534208399682917,8,-28,-24,-3,-11,-14,5,14
1534208399694970,-49,42,-39,31,-4,36,9,-11
1534208399694970,17,-64,13,30,-2,9,15,15
1534208399703889,45,-51,9,-19,20,15,23,30
1534208399703889,-16,41,-55,-13,-78,-40,-21,-19
1534208399718856,-68,0,3,-66,22,6,-10,-28
1534208399718856,51,-1,-72,-80,7,5,11,8
1534208399720885,-42,21,94,99,55,20,-20,-9
1534208399720885,12,-15,-2,28,27,36,25,-8
1534208399740854,13,3,18,28,-12,-32,3,14
1534208399740854,-16,14,-56,-89,-21,-6,6,1
1534208399742916,-14,10,-18,-22,-9,-34,-79,-40
1534208399742916,-2,-9,22,-19,21,23,35,8
1534208399754918,10,38,10,6,21,52,45,29
1534208399754918,-11,-4,40,64,2,-54,-72,-17
1534208399771917,7,4,-7,-51,-19,-20,-14,6
1534208399771917,-23,-1,19,67,-23,-74,-56,-15
1534208399778916,35,-26,-18,-49,17,26,57,1
1534208399778916,50,5,0,55,32,53,51,53
1534208399780916,-28,3,-47,-58,-23,-52,-70,-23
1534208399780916,90,-20,-4,15,-3,-20,-59,22
1534208399800897,-75,5,-53,-39,-4,-86,-58,-12
1534208399800897,10,18,83,62,24,86,82,-43
1534208399802916,-15,10,-20,60,20,96,59,60
1534208399802916,31,-11,-19,-23,-7,8,4,-21
1534208399814917,-44,-6,-4,-13,-10,-77,-66,-29
1534208399814917,24,37,77,49,-10,0,-27,33
1534208399823916,-26,6,-39,-20,-16,-80,-99,-33
1534208399823916,-38,53,-19,18,28,127,127,-30
1534208399838961,127,39,60,-50,30,27,-25,57
1534208399838961,-27,-46,-18,-103,-20,13,77,30
1534208399844958,-70,72,110,109,9,-54,-48,-88
1534208399844958,59,-34,-115,-73,59,14,37,103
1534208399860896,-18,-79,32,66,-24,-7,74,81
1534208399860896,-15,-13,-99,51,17,-9,-122,-76
1534208399862915,122,43,-69,-27,22,90,115,121
1534208399862915,7,-63,30,-40,-58,19,53,-2
1534208399874967,-18,-38,-25,96,21,-55,-81,-13
1534208399874967,76,-27,-64,-110,-28,-7,22,3
1534208399883915,86,-71,-61,-95,-69,-123,-118,-108
1534208399883915,-77,49,26,-88,10,46,-7,-5
1534208399898886,127,22,29,65,48,36,-8,-61
1534208399898886,89,67,92,110,-24,-33,-71,20
1534208399900915,35,-5,-8,-66,22,48,65,75
1534208399900915,-92,3,109,37,-2,-115,-120,-29
1534208399920902,90,6,-64,-90,-53,-19,27,-56
1534208399920902,-128,-54,-87,-74,28,42,3,-68
1534208399922918,7,12,110,48,33,97,118,109
1534208399922918,85,-23,-9,-3,46,-4,13,22
1534208399934967,32,-55,-61,-47,-41,28,-8,-5
1534208399934967,41,44,99,49,29,-83,-76,11
1534208399943914,39,-78,32,-56,-5,77,88,29
1534208399943914,-65,16,102,109,-25,-14,-35,-26
1534208399958963,-71,8,127,-59,17,21,-22,14
1534208399958963,32,9,-119,-63,-15,5,87,13
1534208399960853,-95,-11,-96,31,-13,-27,-128,-67
1534208399960853,11,31,69,11,28,7,74,19
1534208399980852,-1,5,-31,-119,-27,42,12,10
1534208399980852,-19,-6,40,43,2,-7,-21,26
1534208399982913,-10,10,56,-43,-12,-51,-20,-41
1534208399982913,19,19,-125,67,-20,-5,-32,-5
1534208399994962,-6,-14,-21,40,46,76,21,37
1534208399994962,-26,-12,37,34,4,-33,-61,-20
1534208400003913,-4,-7,5,43,-18,-10,6,-9
1534208400003913,31,-6,-65,-69,-10,-7,-18,7
1534208400018910,-40,-12,-18,-3,-11,-34,-38,-7
1534208400018910,3,7,-21,-15,20,-11,14,6
1534208400020881,31,7,50,12,-15,21,41,2
1534208400020881,-62,-9,-14,-118,-12,24,-1,33
1534208400040851,-6,16,-37,120,26,-5,0,-11
1534208400040851,82,-24,4,-38,-19,-30,-12,38
1534208400042912,72,1,65,23,20,21,31,-23
1534208400042912,-30,-6,-64,23,-13,-19,-40,-17
1534208400063913,-7,-1,33,-18,1,13,34,27
1534208400063913,-25,2,19,39,1,9,16,0
1534208400065912,-2,-8,-25,-18,15,12,-8,-1
1534208400065912,32,2,65,-31,-18,-11,-14,-11
1534208400078958,4,2,27,64,0,-24,-30,-4
1534208400078958,20,-5,-63,-48,43,56,86,15
1534208400080881,-33,-2,6,15,-11,-43,-20,-9
1534208400080881,2,4,67,13,-6,0,-9,-5
1534208400100893,-13,2,-11,5,-14,1,8,5
1534208400100893,-21,4,25,-37,-6,-16,-34,-18
1534208400102912,-12,13,-78,36,9,5,12,-3
1534208400102912,12,-1,-3,5,7,6,8,-1
1534208400123925,7,-11,6,12,24,11,9,-2
1534208400123925,-9,8,-1,-16,-36,-21,-18,-13
1534208400125883,2,5,-2,-49,6,1,6,5
1534208400125883,22,4,-8,104,2,-1,-10,0
1534208400138964,-1,9,-9,26,6,0,4,-1
1534208400138964,-15,12,9,-56,-2,8,8,-3
1534208400140911,-25,-1,-6,-46,-56,-20,-11,-7
1534208400140911,9,11,-10,32,34,-2,0,-5
1534208400160899,7,3,2,24,8,27,26,8
1534208400160899,-5,-1,28,8,-21,-7,9,3
1534208400162911,14,8,10,27,-15,-2,27,12
1534208400162911,14,6,-26,-50,-17,4,19,4
1534208400183908,-3,-8,-10,-35,-19,0,3,-10
1534208400183908,-11,9,13,14,6,2,-19,-12
1534208400185910,-21,10,10,27,14,-1,-17,-11
1534208400185910,-29,5,-26,-12,-19,-9,-16,-20
1534208400197878,-5,0,-19,-44,-34,4,1,1
1534208400197878,24,-7,11,52,24,9,3,26
1534208400204910,10,-1,4,49,16,38,-1,-3
1534208400204910,27,3,-18,-4,-19,-5,12,15
1534208400220891,-15,8,24,-44,-21,-29,1,-12
1534208400220891,-19,3,-40,-34,-15,-3,0,-13
1534208400222910,-23,5,10,24,-4,-28,-13,-9
1534208400222910,6,-8,13,50,91,28,-21,-1
1534208400243955,-8,10,-3,-39,16,1,-23,-7
1534208400243955,9,-21,-14,20,-13,-22,-16,-7
1534208400245881,8,30,2,-42,29,4,-12,-40
1534208400245881,-17,-36,-1,-20,-71,-37,-16,-32
1534208400257923,11,22,-12,75,25,1,33,104
1534208400257923,-10,-35,11,-25,1,-10,-3,13
1534208400264849,10,11,-23,-17,-19,3,-1,7
1534208400264849,-2,-2,-7,-8,46,-6,-16,-50
1534208400280848,41,-1,-3,-18,-29,-12,23,-3
1534208400280848,-4,5,27,54,81,42,18,11
1534208400282910,17,-30,13,83,13,10,-7,3
1534208400282910,-29,49,-16,-61,-20,-26,-4,-15
1534208400303931,4,-32,9,15,52,-28,-34,-22
1534208400303931,12,37,25,-18,-10,-2,8,0
1534208400305909,-43,-49,-14,8,20,13,13,0
1534208400305909,-5,-16,-19,13,-5,26,15,19
1534208400317929,-47,32,19,10,22,0,-11,-36
1534208400317929,87,-22,-79,-112,-42,-18,-10,23
1534208400324958,-6,1,96,94,-12,15,18,-3
1534208400324958,24,15,63,43,-13,-14,-14,20
1534208400340896,-87,19,-102,-118,-11,1,-13,-35
1534208400340896,-13,-11,48,127,-33,5,3,-15
1534208400342911,20,45,-14,-56,22,-17,13,14
1534208400342911,37,-20,-50,-49,15,20,19,56
1534208400363911,24,18,93,118,17,5,-7,-15
1534208400363911,-68,19,4,-87,-3,-24,-37,-42
1534208400365909,8,-10,-22,54,19,26,30,23
1534208400365909,-20,18,-20,-66,2,-4,4,-4
1534208400377929,27,-19,4,12,9,1,-5,0
1534208400377929,-18,-40,-29,49,2,13,8,-1
1534208400384926,41,-3,24,49,22,8,-1,2
1534208400384926,-19,41,-10,1,-9,-19,-11,4
1534208400400896,-5,-28,-6,23,-21,6,-26,1
1534208400400896,2,33,-28,-39,7,49,79,2
1534208400402908,-23,-11,-42,-80,-20,-64,-100,-24
1534208400402908,28,-8,20,35,40,104,106,36
1534208400423909,7,-4,-17,-20,-27,-4,-13,2
1534208400423909,5,3,12,-2,-19,-12,15,-1
1534208400425907,-22,23,-13,-44,-15,-34,-32,-7
1534208400425907,-7,-15,53,105,-10,-41,-57,-27
1534208400436846,63,15,-40,-96,-8,50,56,36
1534208400436846,-48,12,49,34,-1,-52,-87,-24
1534208400446907,26,8,-13,23,-11,76,95,28
1534208400446907,-28,-2,13,-14,-6,-64,-63,-21
1534208400460848,2,-10,22,30,-6,-28,-54,-31
1534208400460848,-17,2,-50,-45,-14,-36,21,47
1534208400462908,4,29,5,-9,3,-45,-54,-41
1534208400462908,107,-16,36,42,13,111,95,-8
1534208400483908,-103,26,-57,-112,-30,-29,-29,0
1534208400483908,37,7,79,120,18,-23,-57,-8
1534208400485907,-108,19,0,-95,14,70,93,49
1534208400485907,-38,-34,-83,-36,-42,-31,-25,-9
1534208400497874,93,-45,-47,-9,-4,-95,-67,-39
1534208400497874,89,57,-26,-112,16,25,92,13
1534208400504888,122,2,74,121,-45,-69,-62,-1
1534208400504888,4,-31,-109,-128,-35,-122,-103,-52
1534208400520845,-65,-63,100,114,37,77,127,-50
1534208400520845,-52,31,-8,-65,7,-8,-70,24
1534208400522906,69,0,-4,69,-13,0,54,109
1534208400522906,-28,2,-51,-64,-42,-74,-105,-52
1534208400543952,61,-58,13,74,14,-128,-128,-41
1534208400543952,65,42,65,19,56,127,127,77
1534208400545906,66,-15,-50,-123,-58,-46,-117,-123
1534208400545906,-79,5,84,103,11,38,5,49
1534208400556845,105,-18,38,84,17,99,53,-9
1534208400556845,-74,14,-94,-74,-46,-69,-63,-117
1534208400566906,82,12,-14,105,43,30,60,127
1534208400566906,73,-47,116,-80,-9,-41,-66,-67
1534208400580844,-17,58,27,65,54,86,90,61
1534208400580844,40,-51,-53,14,-5,70,44,-42
1534208400582904,-114,-17,-75,-54,-28,-41,-44,-62
1534208400582904,49,37,21,-103,8,-1,10,19
1534208400603905,-87,30,47,6,-24,-63,-20,-61
1534208400603905,-55,-7,68,-31,33,29,-24,95
1534208400605906,-87,-28,-117,43,17,49,62,72
1534208400605906,21,-41,127,127,37,4,8,-62
1534208400616843,-89,39,-80,-90,-29,-15,-15,26
1534208400616843,45,-14,19,39,-38,-78,-53,-44
1534208400626905,-76,2,113,80,23,12,1,-3
1534208400626905,-5,23,-40,-53,13,35,43,50
1534208400640842,57,-12,7,-3,-18,16,11,4
1534208400640842,30,-31,88,-30,-32,-45,-40,-13
1534208400642904,-1,52,88,-17,43,2,-10,-32
1534208400642904,0,0,32,66,-4,-2,12,23
1534208400663905,1,-2,-47,-88,-2,2,-1,8
1534208400663905,-40,-9,-48,9,-14,-5,-2,0
1534208400665905,33,-26,-47,-67,-3,-14,-28,-30
1534208400665905,-15,21,-5,53,14,9,25,15
1534208400676842,20,-16,20,-74,-27,-7,-12,30
1534208400676842,-6,0,-127,104,10,-16,-26,-26
1534208400686904,-12,-19,110,-32,5,4,-68,-22
1534208400686904,-97,-7,-35,-20,4,14,90,51
1534208400700905,58,31,79,34,-13,5,28,-8
1534208400700905,1,-6,1,5,5,21,-5,-25
1534208400706841,27,-7,-73,-89,-10,-24,-19,-21
1534208400706841,-42,0,-71,-64,-7,0,-31,5
1534208400723904,-10,18,-3,30,0,10,2,35
1534208400723904,18,-10,41,31,6,-9,10,3
1534208400725904,-9,1,-63,-128,-28,-17,-4,-18
1534208400725904,28,22,66,127,33,13,0,4
1534208400736840,-7,-5,-30,-110,-10,-4,11,13
1534208400736840,6,-6,26,-55,-8,12,-11,-1
1534208400746903,2,-2,-15,-12,12,14,21,0
1534208400746903,19,18,-39,-30,-7,-9,0,14
1534208400760842,7,-3,-28,40,-3,-8,-10,-2
1534208400760842,-11,5,16,-32,-7,-4,-6,3
1534208400762903,-1,3,29,122,18,-8,2,-10
1534208400762903,25,-7,-27,-37,-17,5,5,-2
1534208400783900,-1,15,24,53,-1,-4,-6,-1
1534208400783900,-6,2,4,15,7,-14,-7,-3
1534208400785903,6,9,9,-26,-8,19,20,2
1534208400785903,-1,1,14,0,-9,-15,-15,-8
1534208400796840,3,6,-27,-53,8,-9,-7,-1
1534208400796840,-36,10,29,45,2,10,-2,10
1534208400806902,8,-10,9,3,-5,-16,-1,4
1534208400806902,-17,5,-18,3,-5,-2,-6,-13
1534208400820841,-10,-2,14,-19,-2,-8,-9,-2
1534208400820841,13,-2,-2,29,5,-7,2,-2
1534208400822903,1,-4,8,4,-10,-4,0,-3
1534208400822903,17,5,-18,-61,-10,6,2,5
1534208400843948,7,0,-1,39,13,2,5,4
1534208400843948,3,3,3,52,-10,-9,-3,-2
1534208400845902,0,11,5,-51,4,5,6,-1
1534208400845902,11,-3,1,-6,-7,-5,-1,4
1534208400856883,-3,-7,-11,-39,-16,-3,-5,-5
1534208400856883,2,-4,20,55,-9,13,10,2
1534208400866901,-7,-3,-11,15,-10,-1,6,-4
1534208400866901,19,11,-3,7,-9,4,7,8
1534208400880840,-5,-2,32,56,24,2,0,1
1534208400880840,-10,-2,-33,-82,-25,-18,-11,-7
1534208400882902,-13,6,10,-76,-11,-26,-28,-23
1534208400882902,-23,2,-17,54,-68,4,0,-15
1534208400903954,6,-8,37,71,39,49,25,21
1534208400903954,41,-9,-5,19,-32,-3,19,31
1534208400905901,50,5,-16,11,-8,-6,2,24
1534208400905901,-36,-11,-17,-37,-8,-16,-27,-23
1534208400916889,-38,3,-13,-56,-24,-5,-27,-34
1534208400916889,-18,4,10,-47,-7,2,-11,-8
1534208400926900,22,-4,-14,-1,15,32,18,26
1534208400926900,77,8,21,89,24,1,16,47
1534208400940949,-7,3,-18,-68,-25,-22,-9,-8
1534208400940949,-29,6,1,-38,36,-7,-13,-26
1534208400946838,-62,-4,0,-48,-22,-7,-20,-47
1534208400946838,-61,18,9,-4,38,0,-13,-34
1534208400963903,3,-1,-33,36,-1,-25,8,8
1534208400963903,78,-13,-8,-29,14,-8,11,49
1534208400965900,-19,-11,10,69,59,21,14,-1
1534208400965900,44,7,-27,-8,-29,-43,-11,6
1534208400985888,36,-34,14,12,92,41,26,24
1534208400985888,36,-10,11,26,-9,29,29,31
1534208400987900,32,34,-21,-30,-34,-22,-11,5
1534208400987900,-52,0,22,-25,31,-5,-21,-35
1534208401000887,-46,7,0,14,11,6,-10,-21
1534208401000887,-96,-3,23,38,18,-2,-19,-50
1534208401008868,5,-28,49,127,2,24,33,28
1534208401008868,4,4,-85,-128,-16,-13,-1,0
1534208401023948,54,5,-30,6,-90,-20,-10,8
1534208401023948,-3,40,26,-27,78,19,0,-10
1534208401025901,-118,79,78,33,-1,-17,-43,-67
1534208401025901,23,-100,33,90,-56,9,35,45
1534208401045838,34,85,16,17,-35,3,-4,-5
1534208401045838,38,-29,56,9,28,15,17,29
1534208401047871,23,10,-53,-75,0,7,18,1
1534208401047871,-14,46,126,118,66,36,9,33
1534208401060898,18,-97,0,-30,16,-13,-7,25
1534208401060898,-14,-19,-15,-53,-55,-21,0,-22
1534208401066838,4,-12,-54,-97,2,-4,-2,3
1534208401066838,-2,39,12,49,25,6,-8,-35
1534208401083902,-79,-14,55,24,22,1,-14,-26
1534208401083902,33,-29,-55,-41,2,-9,-18,-7
1534208401085899,-4,-29,-40,-18,-8,-47,-26,-18
1534208401085899,40,-5,-72,-49,-19,23,25,28
1534208401105880,-1,56,-9,-37,-41,-12,-2,1
1534208401105880,-10,5,-19,18,-26,-5,4,5
1534208401107899,6,35,23,28,-3,7,6,5
1534208401107899,8,7,-3,-11,3,0,-15,-7
1534208401120911,-11,41,26,-10,-5,-11,-12,-4
1534208401120911,-44,-16,4,37,21,-3,-14,-16
1534208401126879,60,-70,-27,2,-37,26,62,30
1534208401126879,1,28,-5,-20,-10,-37,-24,-8
1534208401143944,-13,-30,-15,-32,0,5,-23,-11
1534208401143944,23,64,-7,-15,-1,-9,22,9
1534208401145897,-12,2,33,39,29,16,-14,-3
1534208401145897,25,-8,6,-7,4,0,-9,-10
1534208401165836,-14,15,-5,11,-26,-66,-84,-7
1534208401165836,20,-12,-56,10,4,35,63,55
1534208401167897,5,17,36,-19,-8,-76,-76,-58
1534208401167897,-43,15,72,66,67,105,101,42
1534208401180869,44,-36,-1,19,-17,-16,14,29
1534208401180869,-4,-18,-13,-41,-1,-56,-94,-21
1534208401186885,85,-29,23,46,-24,-19,-8,29
1534208401186885,-77,-27,32,-6,-5,-24,-55,-75
1534208401203897,120,-38,43,54,36,-6,15,-13
1534208401203897,-12,46,-40,-57,-31,3,-55,7
1534208401205898,5,-66,-25,-44,-18,-84,12,60
1534208401205898,-3,67,-5,81,50,76,62,37
1534208401225884,-66,-44,66,99,2,6,-32,-11
1534208401225884,48,-25,-28,-88,-45,4,-73,-102
1534208401227897,46,-13,24,127,44,13,52,108
1534208401227897,123,27,-67,-128,-66,-17,-82,-119
1534208401240884,-31,-13,-109,-105,28,44,12,50
1534208401240884,-66,-18,61,127,-6,-108,-95,-80
1534208401246834,-51,90,27,44,41,114,80,52
1534208401246834,118,-28,-17,-56,-33,-60,-93,1
1534208401263897,36,7,57,-41,-54,-86,-44,69
1534208401263897,-63,-7,-68,83,28,-17,-2,-52
1534208401265896,73,-44,18,-128,12,-78,-128,-87
1534208401265896,-128,36,83,107,12,36,115,39
1534208401285884,-22,20,-2,-75,8,14,-5,86
1534208401285884,-3,-55,-6,-104,-27,-4,-1,-1
1534208401287896,-101,15,46,-73,15,25,34,9
1534208401287896,-42,34,-103,-94,-3,7,-29,29
1534208401299948,52,-1,96,103,21,-36,-25,-70
1534208401299948,85,-6,-31,-14,-2,87,127,112
1534208401308895,-83,-36,9,-84,2,-2,-65,-93
1534208401308895,-10,-69,-12,67,10,-55,-62,-71
1534208401323944,-108,85,61,-95,-56,-10,24,65
1534208401323944,-100,11,-25,-76,-31,12,34,-44
1534208401325897,77,-2,11,127,47,10,-7,-23
1534208401325897,5,-10,53,-95,0,-14,23,29
1534208401345882,18,-23,-103,-80,13,42,23,-21
1534208401345882,52,34,127,112,15,22,-6,36
1534208401347867,-4,15,-86,-121,-60,-11,15,8
1534208401347867,-21,-23,21,106,13,-13,-10,13
1534208401359944,2,2,-59,-5,3,21,33,-49
1534208401359944,13,20,-23,-43,-7,-19,-12,19
1534208401368833,-8,4,-38,49,23,18,8,-18
1534208401368833,10,21,6,-13,-24,-6,20,21
1534208401383943,14,-18,43,6,6,2,-4,-32
1534208401383943,3,0,0,127,33,-3,-7,6
1534208401385895,0,9,-17,18,18,11,-9,10
1534208401385895,31,0,53,9,-14,-22,-14,10
1534208401405882,87,-25,-60,-9,-1,15,17,-21
1534208401405882,-109,11,29,-57,-2,-52,-55,-2
1534208401407894,83,-2,-38,28,-24,53,74,91
1534208401407894,-22,-14,-23,-115,-13,-14,11,-52
1534208401419943,-40,-29,-65,69,22,0,-12,-29
1534208401419943,90,8,44,-1,2,12,-2,19
1534208401428893,-13,-2,12,-90,-39,-18,-15,5
1534208401428893,2,-24,10,-4,9,-29,-21,14
1534208401443946,-23,7,-62,12,9,26,25,-3
1534208401443946,-1,-2,-7,-68,12,5,-1,-5
1534208401445893,-29,11,39,46,-9,-2,2,-21
1534208401445893,12,-12,40,-31,-16,-12,-4,12
1534208401465832,-21,18,30,-10,4,-9,-14,-28
1534208401465832,18,-12,11,-36,-15,12,14,16
1534208401467861,-6,11,-104,7,19,-4,-3,-20
1534208401467861,-21,14,74,56,0,0,-6,9
1534208401479878,-12,5,57,27,15,9,0,4
1534208401479878,10,16,28,25,3,0,3,1
1534208401488831,-23,3,-65,-45,-30,-22,-10,-18
1534208401488831,31,-3,-15,-4,8,18,-3,11
1534208401503830,5,7,30,-32,3,8,7,-2
1534208401503830,-3,6,-7,-25,2,-3,5,2
1534208401505893,-15,2,41,19,3,-2,-10,-16
1534208401505893,21,-4,-79,-2,-6,-7,-9,9
1534208401525874,2,-5,-9,-36,-20,0,5,-5
1534208401525874,-10,7,-9,17,12,7,6,-3
1534208401527893,8,7,20,12,-8,-4,-5,1
